# Averages over distance (i) for each depth (k):
# Depth(m) Speed(m/s) Density(kg/m^3) Salt PSU Theta(degC)
0.00 1526.1213 1024.7487 35.5060 21.4871
10.00 1526.2018 1024.8029 35.5073 21.4526
20.00 1526.0504 1024.8831 35.5106 21.3298
30.00 1525.5475 1025.0007 35.5155 21.0749
40.00 1524.8865 1025.1318 35.5188 20.7639
50.00 1524.1902 1025.2639 35.5209 20.4432
60.00 1523.5075 1025.3925 35.5222 20.1306
70.00 1522.8419 1025.5170 35.5225 19.8274
80.00 1522.1842 1025.6380 35.5212 19.5303
90.00 1521.5394 1025.7551 35.5182 19.2411
100.00 1520.9413 1025.8653 35.5137 18.9712
110.00 1520.4430 1025.9648 35.5081 18.7386
120.00 1520.0697 1026.0522 35.5025 18.5511
130.00 1519.7875 1026.1313 35.4969 18.3961
140.00 1519.5423 1026.2066 35.4910 18.2546
150.00 1519.2684 1026.2826 35.4836 18.1047
160.00 1518.9512 1026.3604 35.4743 17.9414
170.00 1518.5991 1026.4397 35.4637 17.7672
180.00 1518.1755 1026.5211 35.4496 17.5719
190.00 1517.7293 1026.6032 35.4344 17.3698
200.00 1517.2306 1026.6863 35.4164 17.1530
210.00 1516.6846 1026.7703 35.3960 16.9229
220.00 1516.1386 1026.8542 35.3755 16.6929
230.00 1515.4938 1026.9398 35.3504 16.4361
240.00 1514.8122 1027.0261 35.3237 16.1694
250.00 1514.1307 1027.1123 35.2969 15.9027
260.00 1513.3996 1027.1994 35.2682 15.6231
270.00 1512.5226 1027.2889 35.2341 15.3057
280.00 1511.6455 1027.3784 35.2000 14.9882
290.00 1510.7684 1027.4679 35.1658 14.6707
300.00 1509.8902 1027.5574 35.1317 14.3530
310.00 1508.8453 1027.6467 35.0929 13.9995
320.00 1507.8004 1027.7359 35.0542 13.6461
330.00 1506.7555 1027.8252 35.0154 13.2927
340.00 1505.7106 1027.9144 34.9767 12.9393
350.00 1504.6657 1028.0037 34.9380 12.5859
360.00 1503.6591 1028.0851 34.9026 12.2582
370.00 1502.6552 1028.1660 34.8675 11.9325
380.00 1501.6513 1028.2469 34.8324 11.6067
390.00 1500.6474 1028.3278 34.7973 11.2809
400.00 1499.6435 1028.4087 34.7621 10.9551
410.00 1498.6414 1028.4894 34.7271 10.6299
420.00 1497.8904 1028.5585 34.7020 10.3853
430.00 1497.1393 1028.6276 34.6770 10.1406
440.00 1496.3882 1028.6967 34.6519 9.8960
450.00 1495.6372 1028.7657 34.6268 9.6514
460.00 1494.8861 1028.8348 34.6018 9.4067
470.00 1494.1351 1028.9039 34.5767 9.1621
480.00 1493.4575 1028.9707 34.5542 8.9384
490.00 1492.9968 1029.0310 34.5391 8.7764
500.00 1492.5362 1029.0913 34.5240 8.6144
510.00 1492.0755 1029.1515 34.5090 8.4525
520.00 1491.6149 1029.2118 34.4939 8.2905
530.00 1491.1542 1029.2721 34.4788 8.1285
540.00 1490.6936 1029.3323 34.4638 7.9666
550.00 1490.2329 1029.3926 34.4487 7.8046
560.00 1489.9268 1029.4494 34.4386 7.6841
570.00 1489.6783 1029.5049 34.4304 7.5789
580.00 1489.4297 1029.5604 34.4223 7.4738
590.00 1489.1811 1029.6160 34.4141 7.3686
600.00 1488.9325 1029.6715 34.4059 7.2635
610.00 1488.6839 1029.7270 34.3977 7.1583
620.00 1488.4353 1029.7825 34.3895 7.0532
630.00 1488.1867 1029.8381 34.3813 6.9480
640.00 1487.9979 1029.8926 34.3752 6.8584
650.00 1487.8630 1029.9463 34.3710 6.7828
660.00 1487.7280 1030.0000 34.3667 6.7072
670.00 1487.5930 1030.0538 34.3625 6.6315
680.00 1487.4581 1030.1075 34.3583 6.5559
690.00 1487.3231 1030.1612 34.3541 6.4803
700.00 1487.1882 1030.2149 34.3499 6.4047
710.00 1487.0532 1030.2686 34.3456 6.3290
720.00 1486.9182 1030.3223 34.3414 6.2534
730.00 1486.8168 1030.3760 34.3390 6.1864
740.00 1486.7259 1030.4297 34.3372 6.1222
750.00 1486.6350 1030.4834 34.3354 6.0579
760.00 1486.5441 1030.5371 34.3336 5.9937
770.00 1486.4532 1030.5908 34.3318 5.9294
780.00 1486.3623 1030.6445 34.3300 5.8652
790.00 1486.2715 1030.6982 34.3282 5.8009
800.00 1486.1806 1030.7519 34.3264 5.7367
810.00 1486.0897 1030.8056 34.3246 5.6725
820.00 1486.0074 1030.8597 34.3238 5.6105
830.00 1485.9319 1030.9141 34.3239 5.5503
840.00 1485.8565 1030.9685 34.3240 5.4902
850.00 1485.7810 1031.0230 34.3240 5.4300
860.00 1485.7056 1031.0774 34.3241 5.3698
870.00 1485.6301 1031.1318 34.3242 5.3097
880.00 1485.5547 1031.1862 34.3243 5.2495
890.00 1485.4792 1031.2406 34.3244 5.1894
900.00 1485.4038 1031.2951 34.3244 5.1292
910.00 1485.3287 1031.3495 34.3246 5.0692
920.00 1485.2660 1031.4046 34.3263 5.0124
930.00 1485.2034 1031.4597 34.3280 4.9556
940.00 1485.1408 1031.5148 34.3297 4.8988
950.00 1485.0781 1031.5699 34.3314 4.8421
960.00 1485.0155 1031.6250 34.3331 4.7853
970.00 1484.9529 1031.6801 34.3349 4.7285
980.00 1484.8902 1031.7352 34.3366 4.6718
990.00 1484.8276 1031.7902 34.3383 4.6150
1000.00 1484.7650 1031.8453 34.3400 4.5582
1010.00 1484.7076 1031.9005 34.3421 4.5028
1020.00 1484.6635 1031.9559 34.3452 4.4507
1030.00 1484.6195 1032.0113 34.3482 4.3987
1040.00 1484.5754 1032.0667 34.3513 4.3466
1050.00 1484.5313 1032.1221 34.3543 4.2946
1060.00 1484.4873 1032.1775 34.3574 4.2425
1070.00 1484.4432 1032.2328 34.3604 4.1904
1080.00 1484.3991 1032.2882 34.3635 4.1384
1090.00 1484.3551 1032.3436 34.3665 4.0863
1100.00 1484.3110 1032.3990 34.3696 4.0343
1110.00 1484.2770 1032.4543 34.3730 3.9847
1120.00 1484.2576 1032.5096 34.3771 3.9387
1130.00 1484.2381 1032.5649 34.3811 3.8927
1140.00 1484.2187 1032.6202 34.3851 3.8467
1150.00 1484.1992 1032.6754 34.3892 3.8008
1160.00 1484.1798 1032.7307 34.3932 3.7548
1170.00 1484.1604 1032.7860 34.3972 3.7088
1180.00 1484.1409 1032.8413 34.4013 3.6628
1190.00 1484.1215 1032.8965 34.4053 3.6168
1200.00 1484.1020 1032.9518 34.4093 3.5708
1210.00 1484.0964 1033.0068 34.4136 3.5282
1220.00 1484.1080 1033.0614 34.4181 3.4897
1230.00 1484.1195 1033.1161 34.4226 3.4512
1240.00 1484.1310 1033.1707 34.4271 3.4127
1250.00 1484.1426 1033.2253 34.4317 3.3742
1260.00 1484.1541 1033.2800 34.4362 3.3357
1270.00 1484.1656 1033.3346 34.4407 3.2972
1280.00 1484.1771 1033.3892 34.4452 3.2587
1290.00 1484.1887 1033.4439 34.4497 3.2202
1300.00 1484.2002 1033.4985 34.4543 3.1817
1310.00 1484.2246 1033.5527 34.4587 3.1463
1320.00 1484.2701 1033.6062 34.4631 3.1159
1330.00 1484.3157 1033.6597 34.4676 3.0856
1340.00 1484.3612 1033.7131 34.4720 3.0552
1350.00 1484.4067 1033.7666 34.4764 3.0249
1360.00 1484.4522 1033.8201 34.4808 2.9945
1370.00 1484.4977 1033.8736 34.4852 2.9642
1380.00 1484.5432 1033.9270 34.4896 2.9338
1390.00 1484.5887 1033.9805 34.4940 2.9034
1400.00 1484.6342 1034.0340 34.4984 2.8731
1410.00 1484.6825 1034.0873 34.5027 2.8434
1420.00 1484.7601 1034.1393 34.5065 2.8207
1430.00 1484.8377 1034.1913 34.5102 2.7981
1440.00 1484.9153 1034.2432 34.5140 2.7754
1450.00 1484.9929 1034.2952 34.5177 2.7527
1460.00 1485.0706 1034.3472 34.5215 2.7301
1470.00 1485.1482 1034.3991 34.5252 2.7074
1480.00 1485.2258 1034.4511 34.5290 2.6847
1490.00 1485.3034 1034.5031 34.5327 2.6621
1500.00 1485.3810 1034.5550 34.5365 2.6394
1510.00 1485.4586 1034.6070 34.5402 2.6167
1520.00 1485.5439 1034.6585 34.5437 2.5959
1530.00 1485.6478 1034.7089 34.5466 2.5795
1540.00 1485.7517 1034.7593 34.5494 2.5632
1550.00 1485.8556 1034.8098 34.5523 2.5468
1560.00 1485.9595 1034.8602 34.5551 2.5305
1570.00 1486.0634 1034.9106 34.5579 2.5141
1580.00 1486.1673 1034.9610 34.5608 2.4978
1590.00 1486.2712 1035.0114 34.5636 2.4814
1600.00 1486.3752 1035.0618 34.5665 2.4650
1610.00 1486.4791 1035.1122 34.5693 2.4487
1620.00 1486.5830 1035.1626 34.5722 2.4323
1630.00 1486.6869 1035.2130 34.5750 2.4160
1640.00 1486.8017 1035.2627 34.5774 2.4022
1650.00 1486.9244 1035.3118 34.5794 2.3903
1660.00 1487.0471 1035.3609 34.5813 2.3784
1670.00 1487.1698 1035.4101 34.5833 2.3666
1680.00 1487.2924 1035.4592 34.5853 2.3547
1690.00 1487.4151 1035.5083 34.5873 2.3428
1700.00 1487.5378 1035.5575 34.5893 2.3309
1710.00 1487.6605 1035.6066 34.5913 2.3190
1720.00 1487.7832 1035.6557 34.5933 2.3072
1730.00 1487.9058 1035.7049 34.5953 2.2953
1740.00 1488.0285 1035.7540 34.5973 2.2834
1750.00 1488.1512 1035.8031 34.5993 2.2715
1760.00 1488.2739 1035.8523 34.6013 2.2596
1770.00 1488.4024 1035.9009 34.6030 2.2491
1780.00 1488.5370 1035.9491 34.6043 2.2400
1790.00 1488.6716 1035.9974 34.6057 2.2310
1800.00 1488.8063 1036.0456 34.6070 2.2219
1810.00 1488.9409 1036.0938 34.6084 2.2128
1820.00 1489.0755 1036.1420 34.6097 2.2038
1830.00 1489.2101 1036.1902 34.6111 2.1947
1840.00 1489.3448 1036.2384 34.6124 2.1856
1850.00 1489.4794 1036.2866 34.6138 2.1765
1860.00 1489.6140 1036.3348 34.6151 2.1675
1870.00 1489.7487 1036.3830 34.6165 2.1584
1880.00 1489.8833 1036.4312 34.6178 2.1493
1890.00 1490.0179 1036.4794 34.6192 2.1403
1900.00 1490.1525 1036.5276 34.6205 2.1312
1910.00 1490.2872 1036.5758 34.6219 2.1221
1920.00 1490.4260 1036.6236 34.6230 2.1140
1930.00 1490.5679 1036.6712 34.6239 2.1066
1940.00 1490.7098 1036.7187 34.6248 2.0991
1950.00 1490.8517 1036.7663 34.6257 2.0917
1960.00 1490.9935 1036.8139 34.6267 2.0843
1970.00 1491.1354 1036.8615 34.6276 2.0768
1980.00 1491.2773 1036.9090 34.6285 2.0694
1990.00 1491.4192 1036.9566 34.6294 2.0620
2000.00 1491.5610 1037.0042 34.6303 2.0546
2010.00 1491.7029 1037.0517 34.6312 2.0471
2020.00 1491.8448 1037.0993 34.6322 2.0397
2030.00 1491.9866 1037.1469 34.6331 2.0323
2040.00 1492.1285 1037.1945 34.6340 2.0248
2050.00 1492.2704 1037.2420 34.6349 2.0174
2060.00 1492.4123 1037.2896 34.6358 2.0100
2070.00 1492.5541 1037.3372 34.6368 2.0025
2080.00 1492.6960 1037.3847 34.6377 1.9951
2090.00 1492.8406 1037.4321 34.6384 1.9882
2100.00 1492.9870 1037.4792 34.6391 1.9817
2110.00 1493.1334 1037.5263 34.6397 1.9753
2120.00 1493.2797 1037.5735 34.6404 1.9688
2130.00 1493.4261 1037.6206 34.6410 1.9623
2140.00 1493.5725 1037.6677 34.6417 1.9558
2150.00 1493.7189 1037.7149 34.6423 1.9493
2160.00 1493.8653 1037.7620 34.6430 1.9428
2170.00 1494.0117 1037.8092 34.6436 1.9363
2180.00 1494.1581 1037.8563 34.6443 1.9298
2190.00 1494.3045 1037.9034 34.6449 1.9234
2200.00 1494.4508 1037.9506 34.6456 1.9169
2210.00 1494.5972 1037.9977 34.6462 1.9104
2220.00 1494.7436 1038.0449 34.6469 1.9039
2230.00 1494.8900 1038.0920 34.6475 1.8974
2240.00 1495.0364 1038.1391 34.6482 1.8909
2250.00 1495.1828 1038.1863 34.6488 1.8844
2260.00 1495.3292 1038.2334 34.6495 1.8779
2270.00 1495.4756 1038.2806 34.6501 1.8714
2280.00 1495.6232 1038.3276 34.6507 1.8652
2290.00 1495.7728 1038.3744 34.6512 1.8593
2300.00 1495.9225 1038.4212 34.6517 1.8534
2310.00 1496.0721 1038.4680 34.6522 1.8475
2320.00 1496.2218 1038.5148 34.6527 1.8416
2330.00 1496.3714 1038.5617 34.6531 1.8357
2340.00 1496.5210 1038.6085 34.6536 1.8299
2350.00 1496.6707 1038.6553 34.6541 1.8240
2360.00 1496.8203 1038.7021 34.6546 1.8181
2370.00 1496.9700 1038.7489 34.6551 1.8122
2380.00 1497.1196 1038.7958 34.6556 1.8063
2390.00 1497.2693 1038.8426 34.6561 1.8004
2400.00 1497.4189 1038.8894 34.6566 1.7945
2410.00 1497.5685 1038.9362 34.6571 1.7886
2420.00 1497.7182 1038.9830 34.6576 1.7827
2430.00 1497.8678 1039.0298 34.6580 1.7769
2440.00 1498.0175 1039.0767 34.6585 1.7710
2450.00 1498.1671 1039.1235 34.6590 1.7651
2460.00 1498.3168 1039.1703 34.6595 1.7592
2470.00 1498.4664 1039.2171 34.6600 1.7533
2480.00 1498.6160 1039.2639 34.6605 1.7474
2490.00 1498.7657 1039.3108 34.6610 1.7415
2500.00 1498.9179 1039.3573 34.6614 1.7361
2510.00 1499.0706 1039.4039 34.6618 1.7307
2520.00 1499.2232 1039.4504 34.6622 1.7253
2530.00 1499.3758 1039.4970 34.6626 1.7199
2540.00 1499.5284 1039.5435 34.6630 1.7145
2550.00 1499.6810 1039.5901 34.6634 1.7091
2560.00 1499.8336 1039.6366 34.6638 1.7037
2570.00 1499.9863 1039.6832 34.6641 1.6983
2580.00 1500.1389 1039.7297 34.6645 1.6929
2590.00 1500.2915 1039.7762 34.6649 1.6875
2600.00 1500.4441 1039.8228 34.6653 1.6821
2610.00 1500.5967 1039.8693 34.6657 1.6767
2620.00 1500.7494 1039.9159 34.6661 1.6713
2630.00 1500.9020 1039.9624 34.6665 1.6659
2640.00 1501.0546 1040.0090 34.6669 1.6605
2650.00 1501.2072 1040.0555 34.6673 1.6551
2660.00 1501.3598 1040.1021 34.6677 1.6497
2670.00 1501.5125 1040.1486 34.6681 1.6443
2680.00 1501.6651 1040.1952 34.6685 1.6389
2690.00 1501.8177 1040.2417 34.6689 1.6335
2700.00 1501.9703 1040.2883 34.6693 1.6281
2710.00 1502.1229 1040.3348 34.6697 1.6227
2720.00 1502.2755 1040.3813 34.6701 1.6173
2730.00 1502.4284 1040.4279 34.6705 1.6120
2740.00 1502.5841 1040.4742 34.6708 1.6071
2750.00 1502.7399 1040.5204 34.6711 1.6021
2760.00 1502.8956 1040.5667 34.6715 1.5972
2770.00 1503.0514 1040.6130 34.6718 1.5923
2780.00 1503.2071 1040.6593 34.6721 1.5874
2790.00 1503.3628 1040.7056 34.6725 1.5825
2800.00 1503.5186 1040.7519 34.6728 1.5776
2810.00 1503.6743 1040.7981 34.6732 1.5727
2820.00 1503.8300 1040.8444 34.6735 1.5678
2830.00 1503.9858 1040.8907 34.6738 1.5629
2840.00 1504.1415 1040.9370 34.6742 1.5579
2850.00 1504.2973 1040.9833 34.6745 1.5530
2860.00 1504.4530 1041.0296 34.6748 1.5481
2870.00 1504.6087 1041.0759 34.6752 1.5432
2880.00 1504.7645 1041.1221 34.6755 1.5383
2890.00 1504.9202 1041.1684 34.6758 1.5334
2900.00 1505.0759 1041.2147 34.6762 1.5285
2910.00 1505.2317 1041.2610 34.6765 1.5236
2920.00 1505.3874 1041.3073 34.6769 1.5187
2930.00 1505.5432 1041.3536 34.6772 1.5138
2940.00 1505.6989 1041.3998 34.6775 1.5088
2950.00 1505.8546 1041.4461 34.6779 1.5039
2960.00 1506.0104 1041.4924 34.6782 1.4990
2970.00 1506.1661 1041.5387 34.6785 1.4941
2980.00 1506.3219 1041.5850 34.6789 1.4892
2990.00 1506.4776 1041.6313 34.6792 1.4843
3000.00 1506.6364 1041.6773 34.6795 1.4798
3010.00 1506.7953 1041.7233 34.6798 1.4754
3020.00 1506.9542 1041.7693 34.6801 1.4709
3030.00 1507.1131 1041.8153 34.6804 1.4665
3040.00 1507.2720 1041.8614 34.6807 1.4621
3050.00 1507.4309 1041.9074 34.6810 1.4576
3060.00 1507.5898 1041.9534 34.6813 1.4532
3070.00 1507.7487 1041.9994 34.6816 1.4487
3080.00 1507.9076 1042.0454 34.6819 1.4443
3090.00 1508.0665 1042.0915 34.6822 1.4398
3100.00 1508.2254 1042.1375 34.6825 1.4354
3110.00 1508.3843 1042.1835 34.6828 1.4310
3120.00 1508.5432 1042.2295 34.6830 1.4265
3130.00 1508.7021 1042.2755 34.6833 1.4221
3140.00 1508.8610 1042.3215 34.6836 1.4176
3150.00 1509.0199 1042.3676 34.6839 1.4132
3160.00 1509.1788 1042.4136 34.6842 1.4087
3170.00 1509.3377 1042.4596 34.6845 1.4043
3180.00 1509.4966 1042.5056 34.6848 1.3998
3190.00 1509.6555 1042.5516 34.6851 1.3954
3200.00 1509.8144 1042.5977 34.6854 1.3910
3210.00 1509.9733 1042.6437 34.6857 1.3865
3220.00 1510.1322 1042.6897 34.6860 1.3821
3230.00 1510.2911 1042.7357 34.6863 1.3776
3240.00 1510.4500 1042.7817 34.6866 1.3732
3250.00 1510.6089 1042.8278 34.6869 1.3687
3260.00 1510.7678 1042.8738 34.6872 1.3643
3270.00 1510.9267 1042.9198 34.6875 1.3598
3280.00 1511.0870 1042.9657 34.6878 1.3556
3290.00 1511.2485 1043.0114 34.6880 1.3514
3300.00 1511.4099 1043.0572 34.6883 1.3473
3310.00 1511.5714 1043.1030 34.6886 1.3432
3320.00 1511.7328 1043.1488 34.6888 1.3390
3330.00 1511.8943 1043.1945 34.6891 1.3349
3340.00 1512.0557 1043.2403 34.6894 1.3307
3350.00 1512.2172 1043.2861 34.6897 1.3266
3360.00 1512.3786 1043.3318 34.6899 1.3225
3370.00 1512.5401 1043.3776 34.6902 1.3183
3380.00 1512.7015 1043.4234 34.6905 1.3142
3390.00 1512.8630 1043.4692 34.6907 1.3101
3400.00 1513.0244 1043.5149 34.6910 1.3059
3410.00 1513.1859 1043.5607 34.6913 1.3018
3420.00 1513.3473 1043.6065 34.6915 1.2976
3430.00 1513.5088 1043.6522 34.6918 1.2935
3440.00 1513.6702 1043.6980 34.6921 1.2894
3450.00 1513.8317 1043.7438 34.6923 1.2852
3460.00 1513.9931 1043.7896 34.6926 1.2811
3470.00 1514.1546 1043.8353 34.6929 1.2769
3480.00 1514.3160 1043.8811 34.6932 1.2728
3490.00 1514.4775 1043.9269 34.6934 1.2687
3500.00 1514.6389 1043.9727 34.6937 1.2645
3510.00 1514.8004 1044.0184 34.6940 1.2604
3520.00 1514.9618 1044.0642 34.6942 1.2563
3530.00 1515.1233 1044.1100 34.6945 1.2521
3540.00 1515.2847 1044.1557 34.6948 1.2480
3550.00 1515.4462 1044.2015 34.6950 1.2438
3560.00 1515.6076 1044.2473 34.6953 1.2397
3570.00 1515.7691 1044.2931 34.6956 1.2356
3580.00 1515.9305 1044.3388 34.6959 1.2314
3590.00 1516.0930 1044.3844 34.6961 1.2273
3600.00 1516.2556 1044.4300 34.6964 1.2231
3610.00 1516.4183 1044.4756 34.6966 1.2189
3620.00 1516.5809 1044.5211 34.6969 1.2148
3630.00 1516.7435 1044.5667 34.6971 1.2106
3640.00 1516.9061 1044.6123 34.6974 1.2064
3650.00 1517.0687 1044.6579 34.6976 1.2023
3660.00 1517.2314 1044.7034 34.6979 1.1981
3670.00 1517.3940 1044.7490 34.6981 1.1940
3680.00 1517.5566 1044.7946 34.6984 1.1898
3690.00 1517.7192 1044.8401 34.6986 1.1856
3700.00 1517.8818 1044.8857 34.6989 1.1815
3710.00 1518.0445 1044.9313 34.6991 1.1773
3720.00 1518.2071 1044.9769 34.6994 1.1732
3730.00 1518.3697 1045.0224 34.6996 1.1690
3740.00 1518.5323 1045.0680 34.6999 1.1648
3750.00 1518.6950 1045.1136 34.7001 1.1607
3760.00 1518.8576 1045.1591 34.7004 1.1565
3770.00 1519.0202 1045.2047 34.7006 1.1523
3780.00 1519.1828 1045.2503 34.7009 1.1482
3790.00 1519.3454 1045.2959 34.7011 1.1440
3800.00 1519.5081 1045.3414 34.7014 1.1399
3810.00 1519.6707 1045.3870 34.7016 1.1357
3820.00 1519.8333 1045.4326 34.7019 1.1315
3830.00 1519.9959 1045.4781 34.7021 1.1274
3840.00 1520.1585 1045.5237 34.7024 1.1232
3850.00 1520.3212 1045.5693 34.7026 1.1190
3860.00 1520.4838 1045.6149 34.7029 1.1149
3870.00 1520.6464 1045.6604 34.7031 1.1107
3880.00 1520.8090 1045.7060 34.7034 1.1066
3890.00 1520.9716 1045.7516 34.7036 1.1024
3900.00 1521.1343 1045.7972 34.7039 1.0982
3910.00 1521.2969 1045.8427 34.7042 1.0941
3920.00 1521.4594 1045.8881 34.7044 1.0896
3930.00 1521.6220 1045.9335 34.7046 1.0852
3940.00 1521.7845 1045.9789 34.7048 1.0807
3950.00 1521.9471 1046.0243 34.7050 1.0762
3960.00 1522.1096 1046.0697 34.7052 1.0717
3970.00 1522.2721 1046.1151 34.7054 1.0673
3980.00 1522.4347 1046.1605 34.7057 1.0628
3990.00 1522.5972 1046.2059 34.7059 1.0583
4000.00 1522.7598 1046.2513 34.7061 1.0538
4010.00 1522.9223 1046.2967 34.7063 1.0494
4020.00 1523.0848 1046.3421 34.7065 1.0449
4030.00 1523.2474 1046.3875 34.7067 1.0404
4040.00 1523.4099 1046.4329 34.7069 1.0359
4050.00 1523.5725 1046.4783 34.7072 1.0315
4060.00 1523.7350 1046.5237 34.7074 1.0270
4070.00 1523.8975 1046.5691 34.7076 1.0225
4080.00 1524.0601 1046.6145 34.7078 1.0181
4090.00 1524.2226 1046.6599 34.7080 1.0136
4100.00 1524.3852 1046.7053 34.7082 1.0091
4110.00 1524.5477 1046.7506 34.7084 1.0046
4120.00 1524.7102 1046.7960 34.7086 1.0002
4130.00 1524.8728 1046.8414 34.7089 0.9957
4140.00 1525.0353 1046.8868 34.7091 0.9912
4150.00 1525.1979 1046.9322 34.7093 0.9867
4160.00 1525.3604 1046.9776 34.7095 0.9823
4170.00 1525.5229 1047.0230 34.7097 0.9778
4180.00 1525.6855 1047.0684 34.7099 0.9733
4190.00 1525.8480 1047.1138 34.7101 0.9688
4200.00 1526.0106 1047.1592 34.7104 0.9644
4210.00 1526.1731 1047.2046 34.7106 0.9599
4220.00 1526.3356 1047.2500 34.7108 0.9554
4230.00 1526.4982 1047.2954 34.7110 0.9510
4240.00 1526.6607 1047.3408 34.7112 0.9465
4250.00 1526.8233 1047.3862 34.7114 0.9420
4260.00 1526.9858 1047.4316 34.7116 0.9375
4270.00 1527.1486 1047.4768 34.7118 0.9329
4280.00 1527.3115 1047.5220 34.7119 0.9283
4290.00 1527.4745 1047.5671 34.7121 0.9236
4300.00 1527.6374 1047.6123 34.7122 0.9189
4310.00 1527.8004 1047.6575 34.7123 0.9142
4320.00 1527.9633 1047.7026 34.7125 0.9096
4330.00 1528.1263 1047.7478 34.7126 0.9049
4340.00 1528.2892 1047.7929 34.7128 0.9002
4350.00 1528.4522 1047.8381 34.7129 0.8955
4360.00 1528.6151 1047.8833 34.7130 0.8909
4370.00 1528.7781 1047.9284 34.7132 0.8862
4380.00 1528.9411 1047.9736 34.7133 0.8815
4390.00 1529.1040 1048.0187 34.7134 0.8768
4400.00 1529.2670 1048.0639 34.7136 0.8722
4410.00 1529.4299 1048.1090 34.7137 0.8675
4420.00 1529.5929 1048.1542 34.7138 0.8628
4430.00 1529.7558 1048.1994 34.7140 0.8581
4440.00 1529.9188 1048.2445 34.7141 0.8535
4450.00 1530.0817 1048.2897 34.7142 0.8488
4460.00 1530.2447 1048.3348 34.7144 0.8441
4470.00 1530.4076 1048.3800 34.7145 0.8394
4480.00 1530.5706 1048.4252 34.7146 0.8348
4490.00 1530.7335 1048.4703 34.7148 0.8301
4500.00 1530.8965 1048.5155 34.7149 0.8254
4510.00 1531.0594 1048.5606 34.7150 0.8207
4520.00 1531.2224 1048.6058 34.7152 0.8161
4530.00 1531.3853 1048.6510 34.7153 0.8114
4540.00 1531.5483 1048.6961 34.7154 0.8067
4550.00 1531.7112 1048.7413 34.7156 0.8020
4560.00 1531.8742 1048.7864 34.7157 0.7973
4570.00 1532.0371 1048.8316 34.7159 0.7927
4580.00 1532.2001 1048.8767 34.7160 0.7880
4590.00 1532.3630 1048.9219 34.7161 0.7833
4600.00 1532.5260 1048.9671 34.7163 0.7786
4610.00 1532.6889 1049.0122 34.7164 0.7740
4620.00 1532.8519 1049.0574 34.7165 0.7693
4630.00 1533.0148 1049.1025 34.7167 0.7646
4640.00 1533.1778 1049.1477 34.7168 0.7599
4650.00 1533.3493 1049.1922 34.7168 0.7569
4660.00 1533.5211 1049.2368 34.7169 0.7539
4670.00 1533.6929 1049.2813 34.7169 0.7509
4680.00 1533.8647 1049.3258 34.7169 0.7479
4690.00 1534.0364 1049.3704 34.7170 0.7449
4700.00 1534.2082 1049.4149 34.7170 0.7419
4710.00 1534.3800 1049.4595 34.7170 0.7389
4720.00 1534.5517 1049.5040 34.7170 0.7358
4730.00 1534.7235 1049.5485 34.7171 0.7328
4740.00 1534.8953 1049.5931 34.7171 0.7298
4750.00 1535.0671 1049.6376 34.7171 0.7268
4760.00 1535.2388 1049.6821 34.7172 0.7238
4770.00 1535.4106 1049.7267 34.7172 0.7208
4780.00 1535.5824 1049.7712 34.7172 0.7178
4790.00 1535.7542 1049.8157 34.7173 0.7148
4800.00 1535.9259 1049.8603 34.7173 0.7118
4810.00 1536.0977 1049.9048 34.7173 0.7088
4820.00 1536.2695 1049.9493 34.7174 0.7058
4830.00 1536.4413 1049.9939 34.7174 0.7028
4840.00 1536.6130 1050.0384 34.7174 0.6998
4850.00 1536.7848 1050.0829 34.7174 0.6967
4860.00 1536.9566 1050.1275 34.7175 0.6937
4870.00 1537.1284 1050.1720 34.7175 0.6907
4880.00 1537.3001 1050.2165 34.7175 0.6877
4890.00 1537.4719 1050.2611 34.7176 0.6847
4900.00 1537.6437 1050.3056 34.7176 0.6817
4910.00 1537.8154 1050.3501 34.7176 0.6787
4920.00 1537.9872 1050.3947 34.7177 0.6757
4930.00 1538.1590 1050.4392 34.7177 0.6727
4940.00 1538.3308 1050.4837 34.7177 0.6697
4950.00 1538.5025 1050.5283 34.7178 0.6667
4960.00 1538.6743 1050.5728 34.7178 0.6637
4970.00 1538.8461 1050.6173 34.7178 0.6607
4980.00 1539.0179 1050.6619 34.7178 0.6577
4990.00 1539.1896 1050.7064 34.7179 0.6546
5000.00 1539.3614 1050.7509 34.7179 0.6516
5010.00 1539.5332 1050.7955 34.7179 0.6486
5020.00 1539.7050 1050.8400 34.7180 0.6456
5030.00 1539.8767 1050.8845 34.7180 0.6426
5040.00 1540.0496 1050.9290 34.7180 0.6398
5050.00 1540.2362 1050.9727 34.7180 0.6398
5060.00 1540.4228 1051.0163 34.7180 0.6398
5070.00 1540.6095 1051.0599 34.7180 0.6398
5080.00 1540.7961 1051.1036 34.7180 0.6398
5090.00 1540.9827 1051.1472 34.7180 0.6398
5100.00 1541.1693 1051.1909 34.7180 0.6398
5110.00 1541.3559 1051.2345 34.7180 0.6398
5120.00 1541.5425 1051.2781 34.7180 0.6398
5130.00 1541.7291 1051.3218 34.7180 0.6398
5140.00 1541.9157 1051.3654 34.7180 0.6398
5150.00 1542.1023 1051.4091 34.7180 0.6398
5160.00 1542.2889 1051.4527 34.7180 0.6398
5170.00 1542.4756 1051.4963 34.7180 0.6398
5180.00 1542.6622 1051.5400 34.7180 0.6398
5190.00 1542.8488 1051.5836 34.7180 0.6398
5200.00 1543.0354 1051.6273 34.7180 0.6398
5210.00 1543.2220 1051.6709 34.7180 0.6398
5220.00 1543.4086 1051.7145 34.7180 0.6398
5230.00 1543.5952 1051.7582 34.7180 0.6398
5240.00 1543.7818 1051.8018 34.7180 0.6398
5250.00 1543.9684 1051.8455 34.7180 0.6398
5260.00 1544.1550 1051.8891 34.7180 0.6398
