# Averages over distance (i) for each depth (k):
# Depth(m) Speed(m/s) Density(kg/m^3) Salt PSU Theta(degC)
0.00 1542.9834 1022.8801 35.8137 28.3864
10.00 1543.1259 1022.9285 35.8150 28.3728
20.00 1543.2604 1022.9808 35.8189 28.3539
30.00 1543.3485 1023.0478 35.8312 28.3092
40.00 1543.3412 1023.1402 35.8551 28.2142
50.00 1543.2156 1023.2615 35.8911 28.0587
60.00 1542.9888 1023.4091 35.9394 27.8510
70.00 1542.6803 1023.5804 36.0010 27.6005
80.00 1542.2672 1023.7763 36.0739 27.2990
90.00 1541.6977 1023.9999 36.1541 26.9266
100.00 1540.9096 1024.2521 36.2346 26.4620
110.00 1539.8857 1024.5199 36.3007 25.9089
120.00 1538.7325 1024.7738 36.3379 25.3235
130.00 1537.6105 1024.9899 36.3435 24.7761
140.00 1536.6018 1025.1663 36.3258 24.2948
150.00 1535.6945 1025.3065 36.2870 23.8738
160.00 1534.7343 1025.4390 36.2357 23.4424
170.00 1533.7313 1025.5654 36.1744 23.0026
180.00 1532.4556 1025.6973 36.0915 22.4773
190.00 1531.0938 1025.8308 36.0017 21.9249
200.00 1529.4507 1025.9746 35.8999 21.2876
210.00 1527.5546 1026.1274 35.7873 20.5740
220.00 1525.6586 1026.2803 35.6746 19.8604
230.00 1523.5000 1026.4393 35.5649 19.0894
240.00 1521.2438 1026.6007 35.4562 18.2972
250.00 1518.9875 1026.7621 35.3475 17.5049
260.00 1516.7548 1026.9196 35.2463 16.7327
270.00 1514.5914 1027.0658 35.1675 16.0195
280.00 1512.4279 1027.2120 35.0887 15.3063
290.00 1510.2645 1027.3582 35.0099 14.5931
300.00 1508.1044 1027.5042 34.9313 13.8811
310.00 1506.4266 1027.6221 34.8875 13.3510
320.00 1504.7487 1027.7400 34.8438 12.8210
330.00 1503.0708 1027.8579 34.8001 12.2909
340.00 1501.3929 1027.9758 34.7563 11.7608
350.00 1499.7151 1028.0938 34.7126 11.2307
360.00 1498.6343 1028.1861 34.6927 10.8875
370.00 1497.5971 1028.2765 34.6746 10.5580
380.00 1496.5598 1028.3670 34.6565 10.2284
390.00 1495.5226 1028.4574 34.6384 9.8989
400.00 1494.4854 1028.5479 34.6202 9.5693
410.00 1493.4518 1028.6382 34.6022 9.2408
420.00 1492.9362 1028.7092 34.5965 9.0598
430.00 1492.4206 1028.7801 34.5908 8.8788
440.00 1491.9050 1028.8511 34.5851 8.6977
450.00 1491.3894 1028.9220 34.5794 8.5167
460.00 1490.8738 1028.9929 34.5737 8.3357
470.00 1490.3582 1029.0639 34.5680 8.1547
480.00 1489.9023 1029.1325 34.5631 7.9902
490.00 1489.6228 1029.1940 34.5603 7.8744
500.00 1489.3432 1029.2555 34.5576 7.7587
510.00 1489.0637 1029.3171 34.5548 7.6429
520.00 1488.7841 1029.3786 34.5520 7.5272
530.00 1488.5046 1029.4401 34.5493 7.4115
540.00 1488.2250 1029.5017 34.5465 7.2957
550.00 1487.9455 1029.5632 34.5438 7.1800
560.00 1487.7298 1029.6220 34.5415 7.0821
570.00 1487.5380 1029.6798 34.5395 6.9909
580.00 1487.3461 1029.7376 34.5375 6.8996
590.00 1487.1543 1029.7954 34.5354 6.8084
600.00 1486.9624 1029.8532 34.5334 6.7171
610.00 1486.7705 1029.9110 34.5314 6.6259
620.00 1486.5787 1029.9688 34.5293 6.5346
630.00 1486.3868 1030.0266 34.5273 6.4434
640.00 1486.2280 1030.0833 34.5257 6.3611
650.00 1486.0988 1030.1390 34.5246 6.2869
660.00 1485.9697 1030.1946 34.5235 6.2126
670.00 1485.8406 1030.2503 34.5224 6.1384
680.00 1485.7114 1030.3060 34.5212 6.0642
690.00 1485.5823 1030.3616 34.5201 5.9899
700.00 1485.4531 1030.4173 34.5190 5.9157
710.00 1485.3240 1030.4730 34.5178 5.8415
720.00 1485.1949 1030.5286 34.5167 5.7673
730.00 1485.1057 1030.5832 34.5163 5.7035
740.00 1485.0292 1030.6374 34.5161 5.6431
750.00 1484.9527 1030.6916 34.5159 5.5826
760.00 1484.8762 1030.7458 34.5156 5.5222
770.00 1484.7997 1030.8000 34.5154 5.4617
780.00 1484.7231 1030.8543 34.5152 5.4013
790.00 1484.6466 1030.9085 34.5150 5.3408
800.00 1484.5701 1030.9627 34.5148 5.2804
810.00 1484.4936 1031.0169 34.5146 5.2199
820.00 1484.4392 1031.0706 34.5148 5.1652
830.00 1484.4028 1031.1238 34.5153 5.1150
840.00 1484.3663 1031.1770 34.5157 5.0648
850.00 1484.3299 1031.2302 34.5162 5.0147
860.00 1484.2934 1031.2834 34.5167 4.9645
870.00 1484.2569 1031.3366 34.5172 4.9143
880.00 1484.2205 1031.3899 34.5177 4.8641
890.00 1484.1840 1031.4431 34.5182 4.8140
900.00 1484.1476 1031.4963 34.5187 4.7638
910.00 1484.1118 1031.5495 34.5192 4.7138
920.00 1484.1030 1031.6020 34.5201 4.6707
930.00 1484.0942 1031.6545 34.5210 4.6275
940.00 1484.0855 1031.7070 34.5219 4.5844
950.00 1484.0767 1031.7595 34.5228 4.5413
960.00 1484.0679 1031.8121 34.5237 4.4981
970.00 1484.0591 1031.8646 34.5247 4.4550
980.00 1484.0503 1031.9171 34.5256 4.4119
990.00 1484.0415 1031.9696 34.5265 4.3687
1000.00 1484.0327 1032.0221 34.5274 4.3256
1010.00 1484.0297 1032.0745 34.5284 4.2839
1020.00 1484.0411 1032.1264 34.5295 4.2459
1030.00 1484.0525 1032.1784 34.5307 4.2079
1040.00 1484.0639 1032.2304 34.5318 4.1698
1050.00 1484.0753 1032.2823 34.5330 4.1318
1060.00 1484.0867 1032.3343 34.5342 4.0938
1070.00 1484.0981 1032.3863 34.5353 4.0558
1080.00 1484.1095 1032.4382 34.5365 4.0177
1090.00 1484.1209 1032.4902 34.5376 3.9797
1100.00 1484.1323 1032.5421 34.5388 3.9417
1110.00 1484.1505 1032.5939 34.5400 3.9053
1120.00 1484.1784 1032.6454 34.5412 3.8715
1130.00 1484.2064 1032.6968 34.5425 3.8376
1140.00 1484.2344 1032.7483 34.5437 3.8037
1150.00 1484.2623 1032.7997 34.5450 3.7698
1160.00 1484.2903 1032.8512 34.5462 3.7359
1170.00 1484.3182 1032.9027 34.5475 3.7020
1180.00 1484.3462 1032.9541 34.5487 3.6682
1190.00 1484.3741 1033.0056 34.5500 3.6343
1200.00 1484.4021 1033.0570 34.5513 3.6004
1210.00 1484.4368 1033.1083 34.5525 3.5682
1220.00 1484.4800 1033.1592 34.5538 3.5381
1230.00 1484.5232 1033.2102 34.5551 3.5079
1240.00 1484.5665 1033.2611 34.5564 3.4778
1250.00 1484.6097 1033.3121 34.5577 3.4477
1260.00 1484.6529 1033.3631 34.5589 3.4176
1270.00 1484.6961 1033.4140 34.5602 3.3875
1280.00 1484.7393 1033.4650 34.5615 3.3573
1290.00 1484.7825 1033.5159 34.5628 3.3272
1300.00 1484.8257 1033.5669 34.5641 3.2971
1310.00 1484.8747 1033.6177 34.5654 3.2683
1320.00 1484.9329 1033.6681 34.5666 3.2419
1330.00 1484.9912 1033.7186 34.5679 3.2154
1340.00 1485.0494 1033.7691 34.5692 3.1889
1350.00 1485.1077 1033.8195 34.5705 3.1624
1360.00 1485.1659 1033.8700 34.5718 3.1359
1370.00 1485.2242 1033.9205 34.5730 3.1094
1380.00 1485.2824 1033.9709 34.5743 3.0829
1390.00 1485.3407 1034.0214 34.5756 3.0564
1400.00 1485.3989 1034.0719 34.5769 3.0299
1410.00 1485.4585 1034.1223 34.5782 3.0037
1420.00 1485.5320 1034.1722 34.5794 2.9808
1430.00 1485.6054 1034.2222 34.5806 2.9579
1440.00 1485.6789 1034.2721 34.5819 2.9350
1450.00 1485.7524 1034.3221 34.5831 2.9122
1460.00 1485.8259 1034.3720 34.5844 2.8893
1470.00 1485.8994 1034.4220 34.5856 2.8664
1480.00 1485.9728 1034.4719 34.5869 2.8435
1490.00 1486.0463 1034.5219 34.5881 2.8206
1500.00 1486.1198 1034.5718 34.5893 2.7977
1510.00 1486.1933 1034.6218 34.5906 2.7748
1520.00 1486.2713 1034.6715 34.5918 2.7530
1530.00 1486.3602 1034.7209 34.5930 2.7337
1540.00 1486.4492 1034.7703 34.5941 2.7144
1550.00 1486.5382 1034.8197 34.5953 2.6952
1560.00 1486.6272 1034.8691 34.5964 2.6759
1570.00 1486.7161 1034.9185 34.5976 2.6566
1580.00 1486.8051 1034.9678 34.5988 2.6374
1590.00 1486.8941 1035.0172 34.5999 2.6181
1600.00 1486.9830 1035.0666 34.6011 2.5988
1610.00 1487.0720 1035.1160 34.6022 2.5795
1620.00 1487.1610 1035.1654 34.6034 2.5603
1630.00 1487.2500 1035.2147 34.6045 2.5410
1640.00 1487.3480 1035.2638 34.6056 2.5238
1650.00 1487.4526 1035.3126 34.6067 2.5081
1660.00 1487.5571 1035.3614 34.6077 2.4924
1670.00 1487.6617 1035.4102 34.6087 2.4767
1680.00 1487.7662 1035.4590 34.6098 2.4610
1690.00 1487.8708 1035.5078 34.6108 2.4453
1700.00 1487.9753 1035.5566 34.6119 2.4296
1710.00 1488.0799 1035.6054 34.6129 2.4139
1720.00 1488.1844 1035.6542 34.6139 2.3982
1730.00 1488.2890 1035.7030 34.6150 2.3825
1740.00 1488.3935 1035.7517 34.6160 2.3668
1750.00 1488.4980 1035.8005 34.6170 2.3511
1760.00 1488.6026 1035.8493 34.6181 2.3354
1770.00 1488.7142 1035.8978 34.6190 2.3213
1780.00 1488.8332 1035.9461 34.6199 2.3089
1790.00 1488.9522 1035.9943 34.6208 2.2964
1800.00 1489.0712 1036.0425 34.6217 2.2840
1810.00 1489.1902 1036.0907 34.6226 2.2716
1820.00 1489.3092 1036.1389 34.6235 2.2591
1830.00 1489.4282 1036.1871 34.6243 2.2467
1840.00 1489.5472 1036.2353 34.6252 2.2343
1850.00 1489.6662 1036.2835 34.6261 2.2218
1860.00 1489.7852 1036.3317 34.6270 2.2094
1870.00 1489.9043 1036.3799 34.6279 2.1970
1880.00 1490.0233 1036.4282 34.6288 2.1845
1890.00 1490.1423 1036.4764 34.6296 2.1721
1900.00 1490.2613 1036.5246 34.6305 2.1597
1910.00 1490.3803 1036.5728 34.6314 2.1472
1920.00 1490.5063 1036.6207 34.6322 2.1364
1930.00 1490.6374 1036.6684 34.6329 2.1266
1940.00 1490.7685 1036.7160 34.6337 2.1168
1950.00 1490.8995 1036.7637 34.6344 2.1071
1960.00 1491.0306 1036.8114 34.6351 2.0973
1970.00 1491.1616 1036.8590 34.6358 2.0875
1980.00 1491.2927 1036.9067 34.6365 2.0778
1990.00 1491.4237 1036.9544 34.6373 2.0680
2000.00 1491.5548 1037.0021 34.6380 2.0582
2010.00 1491.6858 1037.0497 34.6387 2.0485
2020.00 1491.8169 1037.0974 34.6394 2.0387
2030.00 1491.9480 1037.1451 34.6402 2.0289
2040.00 1492.0790 1037.1928 34.6409 2.0192
2050.00 1492.2101 1037.2404 34.6416 2.0094
2060.00 1492.3411 1037.2881 34.6423 1.9996
2070.00 1492.4722 1037.3358 34.6431 1.9899
2080.00 1492.6032 1037.3835 34.6438 1.9801
2090.00 1492.7398 1037.4308 34.6444 1.9715
2100.00 1492.8801 1037.4780 34.6450 1.9637
2110.00 1493.0204 1037.5253 34.6455 1.9560
2120.00 1493.1607 1037.5725 34.6461 1.9482
2130.00 1493.3010 1037.6197 34.6467 1.9404
2140.00 1493.4412 1037.6669 34.6472 1.9326
2150.00 1493.5815 1037.7141 34.6478 1.9248
2160.00 1493.7218 1037.7613 34.6484 1.9170
2170.00 1493.8621 1037.8085 34.6489 1.9093
2180.00 1494.0024 1037.8557 34.6495 1.9015
2190.00 1494.1427 1037.9029 34.6501 1.8937
2200.00 1494.2830 1037.9501 34.6506 1.8859
2210.00 1494.4233 1037.9973 34.6512 1.8781
2220.00 1494.5636 1038.0445 34.6518 1.8703
2230.00 1494.7038 1038.0917 34.6523 1.8626
2240.00 1494.8441 1038.1389 34.6529 1.8548
2250.00 1494.9844 1038.1861 34.6535 1.8470
2260.00 1495.1247 1038.2333 34.6540 1.8392
2270.00 1495.2650 1038.2805 34.6546 1.8314
2280.00 1495.4079 1038.3276 34.6551 1.8242
2290.00 1495.5550 1038.3744 34.6556 1.8178
2300.00 1495.7022 1038.4212 34.6560 1.8114
2310.00 1495.8494 1038.4680 34.6564 1.8050
2320.00 1495.9965 1038.5148 34.6568 1.7987
2330.00 1496.1437 1038.5616 34.6573 1.7923
2340.00 1496.2909 1038.6084 34.6577 1.7859
2350.00 1496.4380 1038.6552 34.6581 1.7795
2360.00 1496.5852 1038.7020 34.6586 1.7732
2370.00 1496.7324 1038.7488 34.6590 1.7668
2380.00 1496.8795 1038.7956 34.6594 1.7604
2390.00 1497.0267 1038.8424 34.6598 1.7540
2400.00 1497.1738 1038.8892 34.6603 1.7477
2410.00 1497.3210 1038.9360 34.6607 1.7413
2420.00 1497.4682 1038.9828 34.6611 1.7349
2430.00 1497.6153 1039.0296 34.6615 1.7285
2440.00 1497.7625 1039.0764 34.6620 1.7222
2450.00 1497.9097 1039.1232 34.6624 1.7158
2460.00 1498.0568 1039.1700 34.6628 1.7094
2470.00 1498.2040 1039.2168 34.6633 1.7030
2480.00 1498.3512 1039.2636 34.6637 1.6967
2490.00 1498.4983 1039.3104 34.6641 1.6903
2500.00 1498.6503 1039.3569 34.6645 1.6848
2510.00 1498.8031 1039.4033 34.6648 1.6795
2520.00 1498.9558 1039.4497 34.6651 1.6742
2530.00 1499.1085 1039.4962 34.6654 1.6689
2540.00 1499.2612 1039.5426 34.6657 1.6636
2550.00 1499.4140 1039.5890 34.6660 1.6583
2560.00 1499.5667 1039.6355 34.6663 1.6530
2570.00 1499.7194 1039.6819 34.6667 1.6477
2580.00 1499.8721 1039.7284 34.6670 1.6424
2590.00 1500.0248 1039.7748 34.6673 1.6371
2600.00 1500.1776 1039.8212 34.6676 1.6318
2610.00 1500.3303 1039.8677 34.6679 1.6265
2620.00 1500.4830 1039.9141 34.6682 1.6212
2630.00 1500.6357 1039.9605 34.6686 1.6159
2640.00 1500.7884 1040.0070 34.6689 1.6106
2650.00 1500.9412 1040.0534 34.6692 1.6053
2660.00 1501.0939 1040.0998 34.6695 1.6000
2670.00 1501.2466 1040.1463 34.6698 1.5947
2680.00 1501.3993 1040.1927 34.6701 1.5894
2690.00 1501.5521 1040.2392 34.6705 1.5841
2700.00 1501.7048 1040.2856 34.6708 1.5788
2710.00 1501.8575 1040.3320 34.6711 1.5735
2720.00 1502.0102 1040.3785 34.6714 1.5682
2730.00 1502.1633 1040.4249 34.6717 1.5629
2740.00 1502.3206 1040.4710 34.6720 1.5585
2750.00 1502.4780 1040.5171 34.6722 1.5540
2760.00 1502.6353 1040.5632 34.6724 1.5495
2770.00 1502.7926 1040.6093 34.6727 1.5450
2780.00 1502.9500 1040.6554 34.6729 1.5406
2790.00 1503.1073 1040.7015 34.6731 1.5361
2800.00 1503.2647 1040.7476 34.6734 1.5316
2810.00 1503.4220 1040.7937 34.6736 1.5271
2820.00 1503.5793 1040.8398 34.6739 1.5226
2830.00 1503.7367 1040.8860 34.6741 1.5182
2840.00 1503.8940 1040.9321 34.6743 1.5137
2850.00 1504.0513 1040.9782 34.6746 1.5092
2860.00 1504.2087 1041.0243 34.6748 1.5047
2870.00 1504.3660 1041.0704 34.6750 1.5003
2880.00 1504.5234 1041.1165 34.6753 1.4958
2890.00 1504.6807 1041.1626 34.6755 1.4913
2900.00 1504.8380 1041.2087 34.6757 1.4868
2910.00 1504.9954 1041.2548 34.6760 1.4823
2920.00 1505.1527 1041.3009 34.6762 1.4779
2930.00 1505.3101 1041.3470 34.6765 1.4734
2940.00 1505.4674 1041.3931 34.6767 1.4689
2950.00 1505.6247 1041.4393 34.6769 1.4644
2960.00 1505.7821 1041.4854 34.6772 1.4600
2970.00 1505.9394 1041.5315 34.6774 1.4555
2980.00 1506.0968 1041.5776 34.6776 1.4510
2990.00 1506.2541 1041.6237 34.6779 1.4465
3000.00 1506.4148 1041.6695 34.6781 1.4426
3010.00 1506.5756 1041.7154 34.6783 1.4386
3020.00 1506.7363 1041.7612 34.6785 1.4347
3030.00 1506.8971 1041.8070 34.6787 1.4307
3040.00 1507.0579 1041.8528 34.6788 1.4268
3050.00 1507.2187 1041.8987 34.6790 1.4228
3060.00 1507.3794 1041.9445 34.6792 1.4188
3070.00 1507.5402 1041.9903 34.6794 1.4149
3080.00 1507.7010 1042.0362 34.6796 1.4109
3090.00 1507.8618 1042.0820 34.6798 1.4070
3100.00 1508.0225 1042.1278 34.6800 1.4030
3110.00 1508.1833 1042.1736 34.6802 1.3991
3120.00 1508.3441 1042.2195 34.6804 1.3951
3130.00 1508.5049 1042.2653 34.6806 1.3912
3140.00 1508.6657 1042.3111 34.6808 1.3872
3150.00 1508.8264 1042.3570 34.6810 1.3833
3160.00 1508.9872 1042.4028 34.6812 1.3793
3170.00 1509.1480 1042.4486 34.6814 1.3754
3180.00 1509.3088 1042.4944 34.6816 1.3714
3190.00 1509.4695 1042.5403 34.6817 1.3675
3200.00 1509.6303 1042.5861 34.6819 1.3635
3210.00 1509.7911 1042.6319 34.6821 1.3596
3220.00 1509.9519 1042.6778 34.6823 1.3556
3230.00 1510.1126 1042.7236 34.6825 1.3517
3240.00 1510.2734 1042.7694 34.6827 1.3477
3250.00 1510.4342 1042.8152 34.6829 1.3438
3260.00 1510.5950 1042.8611 34.6831 1.3398
3270.00 1510.7557 1042.9069 34.6833 1.3359
3280.00 1510.9178 1042.9526 34.6835 1.3321
3290.00 1511.0809 1042.9982 34.6837 1.3284
3300.00 1511.2440 1043.0438 34.6839 1.3247
3310.00 1511.4071 1043.0894 34.6840 1.3209
3320.00 1511.5702 1043.1350 34.6842 1.3172
3330.00 1511.7333 1043.1806 34.6844 1.3135
3340.00 1511.8963 1043.2262 34.6846 1.3098
3350.00 1512.0594 1043.2718 34.6848 1.3061
3360.00 1512.2225 1043.3174 34.6850 1.3024
3370.00 1512.3856 1043.3630 34.6852 1.2987
3380.00 1512.5487 1043.4086 34.6853 1.2950
3390.00 1512.7118 1043.4542 34.6855 1.2913
3400.00 1512.8748 1043.4999 34.6857 1.2876
3410.00 1513.0379 1043.5455 34.6859 1.2839
3420.00 1513.2010 1043.5911 34.6861 1.2802
3430.00 1513.3641 1043.6367 34.6863 1.2764
3440.00 1513.5272 1043.6823 34.6865 1.2727
3450.00 1513.6902 1043.7279 34.6867 1.2690
3460.00 1513.8533 1043.7735 34.6868 1.2653
3470.00 1514.0164 1043.8191 34.6870 1.2616
3480.00 1514.1795 1043.8647 34.6872 1.2579
3490.00 1514.3426 1043.9103 34.6874 1.2542
3500.00 1514.5057 1043.9559 34.6876 1.2505
3510.00 1514.6687 1044.0015 34.6878 1.2468
3520.00 1514.8318 1044.0471 34.6880 1.2431
3530.00 1514.9949 1044.0927 34.6881 1.2394
3540.00 1515.1580 1044.1383 34.6883 1.2357
3550.00 1515.3211 1044.1839 34.6885 1.2320
3560.00 1515.4841 1044.2295 34.6887 1.2282
3570.00 1515.6472 1044.2751 34.6889 1.2245
3580.00 1515.8103 1044.3207 34.6891 1.2208
3590.00 1515.9748 1044.3662 34.6893 1.2172
3600.00 1516.1396 1044.4116 34.6895 1.2136
3610.00 1516.3043 1044.4570 34.6897 1.2099
3620.00 1516.4691 1044.5024 34.6899 1.2063
3630.00 1516.6338 1044.5478 34.6901 1.2027
3640.00 1516.7985 1044.5932 34.6903 1.1990
3650.00 1516.9633 1044.6386 34.6905 1.1954
3660.00 1517.1280 1044.6840 34.6907 1.1918
3670.00 1517.2928 1044.7294 34.6909 1.1881
3680.00 1517.4575 1044.7748 34.6911 1.1845
3690.00 1517.6222 1044.8202 34.6913 1.1809
3700.00 1517.7870 1044.8656 34.6915 1.1772
3710.00 1517.9517 1044.9110 34.6917 1.1736
3720.00 1518.1165 1044.9564 34.6919 1.1700
3730.00 1518.2812 1045.0018 34.6921 1.1663
3740.00 1518.4459 1045.0473 34.6923 1.1627
3750.00 1518.6107 1045.0927 34.6925 1.1591
3760.00 1518.7754 1045.1381 34.6927 1.1554
3770.00 1518.9401 1045.1835 34.6929 1.1518
3780.00 1519.1049 1045.2289 34.6931 1.1482
3790.00 1519.2696 1045.2743 34.6933 1.1445
3800.00 1519.4344 1045.3197 34.6935 1.1409
3810.00 1519.5991 1045.3651 34.6937 1.1373
3820.00 1519.7638 1045.4105 34.6939 1.1336
3830.00 1519.9286 1045.4559 34.6941 1.1300
3840.00 1520.0933 1045.5013 34.6943 1.1264
3850.00 1520.2581 1045.5467 34.6945 1.1227
3860.00 1520.4228 1045.5921 34.6947 1.1191
3870.00 1520.5875 1045.6375 34.6949 1.1155
3880.00 1520.7523 1045.6830 34.6951 1.1118
3890.00 1520.9170 1045.7284 34.6953 1.1082
3900.00 1521.0818 1045.7738 34.6955 1.1046
3910.00 1521.2465 1045.8192 34.6957 1.1009
3920.00 1521.4117 1045.8644 34.6960 1.0971
3930.00 1521.5771 1045.9097 34.6962 1.0933
3940.00 1521.7424 1045.9549 34.6964 1.0895
3950.00 1521.9077 1046.0002 34.6966 1.0857
3960.00 1522.0731 1046.0454 34.6969 1.0819
3970.00 1522.2384 1046.0907 34.6971 1.0781
3980.00 1522.4037 1046.1359 34.6973 1.0742
3990.00 1522.5690 1046.1812 34.6976 1.0704
4000.00 1522.7344 1046.2264 34.6978 1.0666
4010.00 1522.8997 1046.2716 34.6980 1.0628
4020.00 1523.0650 1046.3169 34.6983 1.0590
4030.00 1523.2303 1046.3621 34.6985 1.0552
4040.00 1523.3957 1046.4074 34.6987 1.0514
4050.00 1523.5610 1046.4526 34.6989 1.0476
4060.00 1523.7263 1046.4979 34.6992 1.0437
4070.00 1523.8916 1046.5431 34.6994 1.0399
4080.00 1524.0570 1046.5884 34.6996 1.0361
4090.00 1524.2223 1046.6336 34.6999 1.0323
4100.00 1524.3876 1046.6789 34.7001 1.0285
4110.00 1524.5530 1046.7241 34.7003 1.0247
4120.00 1524.7183 1046.7694 34.7006 1.0209
4130.00 1524.8836 1046.8146 34.7008 1.0170
4140.00 1525.0489 1046.8598 34.7010 1.0132
4150.00 1525.2143 1046.9051 34.7012 1.0094
4160.00 1525.3796 1046.9503 34.7015 1.0056
4170.00 1525.5449 1046.9956 34.7017 1.0018
4180.00 1525.7102 1047.0408 34.7019 0.9980
4190.00 1525.8756 1047.0861 34.7022 0.9942
4200.00 1526.0409 1047.1313 34.7024 0.9904
4210.00 1526.2062 1047.1766 34.7026 0.9865
4220.00 1526.3715 1047.2218 34.7029 0.9827
4230.00 1526.5369 1047.2671 34.7031 0.9789
4240.00 1526.7022 1047.3123 34.7033 0.9751
4250.00 1526.8675 1047.3575 34.7035 0.9713
4260.00 1527.0329 1047.4028 34.7038 0.9675
4270.00 1527.2028 1047.4477 34.7040 0.9645
4280.00 1527.3761 1047.4924 34.7041 0.9622
4290.00 1527.5494 1047.5371 34.7043 0.9599
4300.00 1527.7227 1047.5818 34.7044 0.9575
4310.00 1527.8960 1047.6264 34.7045 0.9552
4320.00 1528.0693 1047.6711 34.7047 0.9529
4330.00 1528.2426 1047.7158 34.7048 0.9505
4340.00 1528.4159 1047.7605 34.7050 0.9482
4350.00 1528.5892 1047.8052 34.7051 0.9459
4360.00 1528.7625 1047.8498 34.7053 0.9436
4370.00 1528.9358 1047.8945 34.7054 0.9412
4380.00 1529.1091 1047.9392 34.7056 0.9389
4390.00 1529.2824 1047.9839 34.7057 0.9366
4400.00 1529.4557 1048.0286 34.7059 0.9343
4410.00 1529.6290 1048.0733 34.7060 0.9319
4420.00 1529.8023 1048.1179 34.7062 0.9296
4430.00 1529.9756 1048.1626 34.7063 0.9273
4440.00 1530.1489 1048.2073 34.7064 0.9249
4450.00 1530.3222 1048.2520 34.7066 0.9226
4460.00 1530.4955 1048.2967 34.7067 0.9203
4470.00 1530.6688 1048.3414 34.7069 0.9180
4480.00 1530.8421 1048.3860 34.7070 0.9156
4490.00 1531.0154 1048.4307 34.7072 0.9133
4500.00 1531.1887 1048.4754 34.7073 0.9110
4510.00 1531.3620 1048.5201 34.7075 0.9086
4520.00 1531.5353 1048.5648 34.7076 0.9063
4530.00 1531.7086 1048.6094 34.7078 0.9040
4540.00 1531.8819 1048.6541 34.7079 0.9017
4550.00 1532.0552 1048.6988 34.7081 0.8993
4560.00 1532.2285 1048.7435 34.7082 0.8970
4570.00 1532.4018 1048.7882 34.7084 0.8947
4580.00 1532.5751 1048.8329 34.7085 0.8923
