# Averages over distance (i) for each depth (k):
# Depth(m) Speed(m/s) Density(kg/m^3) Salt PSU Theta(degC)
0.00 1511.3593 1025.0081 34.2726 16.7985
10.00 1511.4339 1025.0586 34.2710 16.7676
20.00 1511.3611 1025.1187 34.2675 16.6889
30.00 1510.9087 1025.2028 34.2581 16.4880
40.00 1509.9720 1025.3167 34.2420 16.1333
50.00 1508.6274 1025.4539 34.2207 15.6528
60.00 1507.0725 1025.6002 34.1967 15.1127
70.00 1505.4934 1025.7438 34.1725 14.5727
80.00 1504.0178 1025.8770 34.1488 14.0720
90.00 1502.6972 1025.9970 34.1253 13.6249
100.00 1501.5295 1026.1045 34.1014 13.2292
110.00 1500.5062 1026.2022 34.0788 12.8803
120.00 1499.5893 1026.2945 34.0590 12.5649
130.00 1498.7019 1026.3869 34.0429 12.2594
140.00 1497.7942 1026.4831 34.0314 11.9485
150.00 1496.8854 1026.5898 34.0343 11.6353
160.00 1496.0248 1026.7036 34.0500 11.3334
170.00 1495.2030 1026.8230 34.0759 11.0406
180.00 1494.5149 1026.9465 34.1164 10.7833
190.00 1493.8689 1027.0713 34.1615 10.5372
200.00 1493.3190 1027.1916 34.2079 10.3191
210.00 1492.8555 1027.3078 34.2555 10.1262
220.00 1492.3920 1027.4241 34.3030 9.9333
230.00 1491.9838 1027.5273 34.3392 9.7616
240.00 1491.5962 1027.6256 34.3711 9.5977
250.00 1491.2086 1027.7239 34.4030 9.4338
260.00 1490.8136 1027.8172 34.4289 9.2707
270.00 1490.3965 1027.8959 34.4372 9.1097
280.00 1489.9795 1027.9746 34.4456 8.9487
290.00 1489.5624 1028.0532 34.4539 8.7877
300.00 1489.1451 1028.1318 34.4621 8.6267
310.00 1488.6799 1028.1983 34.4553 8.4613
320.00 1488.2147 1028.2648 34.4484 8.2959
330.00 1487.7495 1028.3312 34.4416 8.1305
340.00 1487.2843 1028.3977 34.4348 7.9651
350.00 1486.8191 1028.4642 34.4279 7.7997
360.00 1486.4005 1028.5244 34.4176 7.6509
370.00 1485.9853 1028.5841 34.4070 7.5034
380.00 1485.5701 1028.6437 34.3965 7.3558
390.00 1485.1549 1028.7034 34.3859 7.2083
400.00 1484.7397 1028.7631 34.3753 7.0607
410.00 1484.3256 1028.8228 34.3648 6.9135
420.00 1484.0652 1028.8779 34.3570 6.8073
430.00 1483.8049 1028.9329 34.3493 6.7011
440.00 1483.5445 1028.9880 34.3416 6.5949
450.00 1483.2841 1029.0430 34.3338 6.4887
460.00 1483.0238 1029.0981 34.3261 6.3825
470.00 1482.7634 1029.1532 34.3183 6.2763
480.00 1482.5396 1029.2077 34.3117 6.1793
490.00 1482.4239 1029.2608 34.3083 6.1095
500.00 1482.3082 1029.3138 34.3049 6.0397
510.00 1482.1924 1029.3669 34.3016 5.9698
520.00 1482.0767 1029.4199 34.2982 5.9000
530.00 1481.9610 1029.4730 34.2948 5.8302
540.00 1481.8453 1029.5260 34.2914 5.7604
550.00 1481.7295 1029.5791 34.2881 5.6905
560.00 1481.6674 1029.6321 34.2870 5.6338
570.00 1481.6252 1029.6851 34.2869 5.5819
580.00 1481.5830 1029.7381 34.2868 5.5299
590.00 1481.5408 1029.7911 34.2866 5.4780
600.00 1481.4986 1029.8442 34.2865 5.4261
610.00 1481.4564 1029.8972 34.2863 5.3742
620.00 1481.4142 1029.9502 34.2862 5.3223
630.00 1481.3720 1030.0032 34.2861 5.2703
640.00 1481.3416 1030.0566 34.2870 5.2212
650.00 1481.3218 1030.1104 34.2888 5.1747
660.00 1481.3020 1030.1642 34.2907 5.1281
670.00 1481.2822 1030.2180 34.2925 5.0815
680.00 1481.2624 1030.2718 34.2944 5.0349
690.00 1481.2426 1030.3256 34.2962 4.9883
700.00 1481.2228 1030.3794 34.2981 4.9417
710.00 1481.2030 1030.4332 34.2999 4.8952
720.00 1481.1832 1030.4870 34.3018 4.8486
730.00 1481.1701 1030.5414 34.3047 4.8036
740.00 1481.1590 1030.5960 34.3080 4.7591
750.00 1481.1479 1030.6506 34.3113 4.7146
760.00 1481.1369 1030.7052 34.3146 4.6701
770.00 1481.1258 1030.7598 34.3178 4.6256
780.00 1481.1147 1030.8144 34.3211 4.5811
790.00 1481.1036 1030.8690 34.3244 4.5366
800.00 1481.0926 1030.9236 34.3277 4.4921
810.00 1481.0815 1030.9782 34.3310 4.4476
820.00 1481.0800 1031.0330 34.3349 4.4054
830.00 1481.0862 1031.0879 34.3393 4.3650
840.00 1481.0923 1031.1428 34.3437 4.3247
850.00 1481.0985 1031.1977 34.3481 4.2843
860.00 1481.1047 1031.2526 34.3525 4.2440
870.00 1481.1109 1031.3075 34.3569 4.2036
880.00 1481.1170 1031.3624 34.3614 4.1633
890.00 1481.1232 1031.4173 34.3658 4.1229
900.00 1481.1294 1031.4722 34.3702 4.0826
910.00 1481.1364 1031.5271 34.3746 4.0424
920.00 1481.1737 1031.5813 34.3794 4.0096
930.00 1481.2110 1031.6355 34.3842 3.9768
940.00 1481.2484 1031.6897 34.3890 3.9440
950.00 1481.2857 1031.7439 34.3938 3.9112
960.00 1481.3230 1031.7982 34.3986 3.8784
970.00 1481.3604 1031.8524 34.4035 3.8456
980.00 1481.3977 1031.9066 34.4083 3.8128
990.00 1481.4350 1031.9608 34.4131 3.7800
1000.00 1481.4724 1032.0150 34.4179 3.7472
1010.00 1481.5181 1032.0689 34.4226 3.7164
1020.00 1481.5848 1032.1218 34.4269 3.6908
1030.00 1481.6515 1032.1747 34.4313 3.6652
1040.00 1481.7182 1032.2276 34.4356 3.6397
1050.00 1481.7849 1032.2805 34.4399 3.6141
1060.00 1481.8516 1032.3335 34.4443 3.5885
1070.00 1481.9183 1032.3864 34.4486 3.5629
1080.00 1481.9850 1032.4393 34.4530 3.5373
1090.00 1482.0517 1032.4922 34.4573 3.5117
1100.00 1482.1184 1032.5451 34.4617 3.4861
1110.00 1482.1918 1032.5975 34.4657 3.4622
1120.00 1482.2748 1032.6493 34.4692 3.4407
1130.00 1482.3578 1032.7010 34.4727 3.4193
1140.00 1482.4408 1032.7527 34.4763 3.3978
1150.00 1482.5238 1032.8045 34.4798 3.3763
1160.00 1482.6068 1032.8562 34.4833 3.3549
1170.00 1482.6898 1032.9079 34.4869 3.3334
1180.00 1482.7729 1032.9596 34.4904 3.3120
1190.00 1482.8559 1033.0114 34.4939 3.2905
1200.00 1482.9389 1033.0631 34.4975 3.2690
1210.00 1483.0253 1033.1144 34.5007 3.2485
1220.00 1483.1158 1033.1653 34.5035 3.2290
1230.00 1483.2064 1033.2162 34.5063 3.2096
1240.00 1483.2970 1033.2671 34.5091 3.1901
1250.00 1483.3876 1033.3179 34.5119 3.1707
1260.00 1483.4782 1033.3688 34.5147 3.1512
1270.00 1483.5688 1033.4197 34.5176 3.1318
1280.00 1483.6593 1033.4706 34.5204 3.1123
1290.00 1483.7499 1033.5214 34.5232 3.0929
1300.00 1483.8405 1033.5723 34.5260 3.0734
1310.00 1483.9328 1033.6230 34.5286 3.0544
1320.00 1484.0279 1033.6733 34.5310 3.0362
1330.00 1484.1230 1033.7236 34.5333 3.0179
1340.00 1484.2180 1033.7739 34.5356 2.9997
1350.00 1484.3131 1033.8242 34.5379 2.9815
1360.00 1484.4082 1033.8745 34.5402 2.9632
1370.00 1484.5033 1033.9248 34.5425 2.9450
1380.00 1484.5984 1033.9751 34.5449 2.9267
1390.00 1484.6935 1034.0254 34.5472 2.9085
1400.00 1484.7886 1034.0757 34.5495 2.8902
1410.00 1484.8840 1034.1260 34.5518 2.8721
1420.00 1484.9830 1034.1759 34.5538 2.8548
1430.00 1485.0820 1034.2257 34.5557 2.8376
1440.00 1485.1810 1034.2756 34.5577 2.8203
1450.00 1485.2801 1034.3255 34.5597 2.8031
1460.00 1485.3791 1034.3754 34.5617 2.7858
1470.00 1485.4781 1034.4252 34.5637 2.7686
1480.00 1485.5771 1034.4751 34.5656 2.7514
1490.00 1485.6762 1034.5250 34.5676 2.7341
1500.00 1485.7752 1034.5749 34.5696 2.7169
1510.00 1485.8742 1034.6247 34.5716 2.6996
1520.00 1485.9746 1034.6745 34.5735 2.6827
1530.00 1486.0785 1034.7240 34.5752 2.6667
1540.00 1486.1824 1034.7734 34.5769 2.6506
1550.00 1486.2864 1034.8229 34.5786 2.6346
1560.00 1486.3903 1034.8724 34.5803 2.6185
1570.00 1486.4942 1034.9218 34.5820 2.6025
1580.00 1486.5981 1034.9713 34.5837 2.5864
1590.00 1486.7020 1035.0207 34.5854 2.5703
1600.00 1486.8059 1035.0702 34.5871 2.5543
1610.00 1486.9098 1035.1197 34.5888 2.5382
1620.00 1487.0137 1035.1691 34.5905 2.5222
1630.00 1487.1176 1035.2186 34.5922 2.5061
1640.00 1487.2257 1035.2678 34.5937 2.4911
1650.00 1487.3369 1035.3168 34.5952 2.4767
1660.00 1487.4480 1035.3658 34.5966 2.4623
1670.00 1487.5591 1035.4148 34.5980 2.4480
1680.00 1487.6703 1035.4638 34.5995 2.4336
1690.00 1487.7814 1035.5128 34.6009 2.4192
1700.00 1487.8925 1035.5618 34.6023 2.4049
1710.00 1488.0037 1035.6108 34.6038 2.3905
1720.00 1488.1148 1035.6598 34.6052 2.3761
1730.00 1488.2259 1035.7087 34.6066 2.3618
1740.00 1488.3371 1035.7577 34.6080 2.3474
1750.00 1488.4482 1035.8067 34.6095 2.3330
1760.00 1488.5594 1035.8557 34.6109 2.3187
1770.00 1488.6751 1035.9045 34.6122 2.3053
1780.00 1488.7957 1035.9529 34.6134 2.2931
1790.00 1488.9163 1036.0014 34.6145 2.2809
1800.00 1489.0369 1036.0499 34.6157 2.2687
1810.00 1489.1576 1036.0983 34.6169 2.2565
1820.00 1489.2782 1036.1468 34.6180 2.2443
1830.00 1489.3988 1036.1952 34.6192 2.2321
1840.00 1489.5194 1036.2437 34.6204 2.2199
1850.00 1489.6400 1036.2921 34.6215 2.2077
1860.00 1489.7606 1036.3406 34.6227 2.1955
1870.00 1489.8813 1036.3891 34.6238 2.1833
1880.00 1490.0019 1036.4375 34.6250 2.1711
1890.00 1490.1225 1036.4860 34.6262 2.1589
1900.00 1490.2431 1036.5344 34.6273 2.1467
1910.00 1490.3637 1036.5829 34.6285 2.1345
1920.00 1490.4906 1036.6310 34.6295 2.1237
1930.00 1490.6219 1036.6789 34.6304 2.1139
1940.00 1490.7533 1036.7268 34.6314 2.1040
1950.00 1490.8846 1036.7747 34.6323 2.0942
1960.00 1491.0159 1036.8226 34.6332 2.0844
1970.00 1491.1472 1036.8705 34.6341 2.0746
1980.00 1491.2786 1036.9184 34.6350 2.0648
1990.00 1491.4099 1036.9663 34.6360 2.0549
2000.00 1491.5412 1037.0142 34.6369 2.0451
2010.00 1491.6725 1037.0621 34.6378 2.0353
2020.00 1491.8039 1037.1100 34.6387 2.0255
2030.00 1491.9352 1037.1579 34.6396 2.0157
2040.00 1492.0665 1037.2058 34.6406 2.0059
2050.00 1492.1979 1037.2537 34.6415 1.9960
2060.00 1492.3292 1037.3015 34.6424 1.9862
2070.00 1492.4605 1037.3494 34.6433 1.9764
2080.00 1492.5918 1037.3973 34.6442 1.9666
2090.00 1492.7295 1037.4449 34.6450 1.9581
2100.00 1492.8713 1037.4922 34.6457 1.9506
2110.00 1493.0132 1037.5396 34.6465 1.9431
2120.00 1493.1551 1037.5869 34.6472 1.9356
2130.00 1493.2970 1037.6343 34.6479 1.9280
2140.00 1493.4388 1037.6816 34.6486 1.9205
2150.00 1493.5807 1037.7289 34.6493 1.9130
2160.00 1493.7226 1037.7763 34.6500 1.9055
2170.00 1493.8645 1037.8236 34.6507 1.8979
2180.00 1494.0063 1037.8710 34.6514 1.8904
2190.00 1494.1482 1037.9183 34.6521 1.8829
2200.00 1494.2901 1037.9656 34.6528 1.8754
2210.00 1494.4320 1038.0130 34.6535 1.8678
2220.00 1494.5738 1038.0603 34.6543 1.8603
2230.00 1494.7157 1038.1077 34.6550 1.8528
2240.00 1494.8576 1038.1550 34.6557 1.8453
2250.00 1494.9995 1038.2023 34.6564 1.8377
2260.00 1495.1413 1038.2497 34.6571 1.8302
2270.00 1495.2832 1038.2970 34.6578 1.8227
2280.00 1495.4286 1038.3442 34.6584 1.8159
2290.00 1495.5799 1038.3910 34.6590 1.8104
2300.00 1495.7311 1038.4378 34.6595 1.8048
2310.00 1495.8824 1038.4846 34.6600 1.7993
2320.00 1496.0336 1038.5315 34.6606 1.7937
2330.00 1496.1849 1038.5783 34.6611 1.7882
2340.00 1496.3361 1038.6251 34.6616 1.7826
2350.00 1496.4874 1038.6719 34.6622 1.7771
2360.00 1496.6386 1038.7187 34.6627 1.7715
2370.00 1496.7899 1038.7656 34.6632 1.7660
2380.00 1496.9411 1038.8124 34.6637 1.7604
2390.00 1497.0924 1038.8592 34.6643 1.7549
2400.00 1497.2436 1038.9060 34.6648 1.7493
2410.00 1497.3949 1038.9529 34.6653 1.7438
2420.00 1497.5461 1038.9997 34.6659 1.7382
2430.00 1497.6974 1039.0465 34.6664 1.7327
2440.00 1497.8486 1039.0933 34.6669 1.7271
2450.00 1497.9999 1039.1401 34.6675 1.7216
2460.00 1498.1511 1039.1870 34.6680 1.7160
2470.00 1498.3024 1039.2338 34.6685 1.7105
2480.00 1498.4536 1039.2806 34.6690 1.7049
2490.00 1498.6049 1039.3274 34.6696 1.6994
2500.00 1498.7626 1039.3739 34.6700 1.6951
2510.00 1498.9212 1039.4202 34.6704 1.6911
2520.00 1499.0799 1039.4666 34.6708 1.6870
2530.00 1499.2385 1039.5130 34.6711 1.6829
2540.00 1499.3972 1039.5593 34.6715 1.6789
2550.00 1499.5558 1039.6057 34.6719 1.6748
2560.00 1499.7145 1039.6521 34.6723 1.6708
2570.00 1499.8731 1039.6984 34.6727 1.6667
2580.00 1500.0318 1039.7448 34.6731 1.6626
2590.00 1500.1904 1039.7912 34.6735 1.6586
2600.00 1500.3490 1039.8375 34.6739 1.6545
2610.00 1500.5077 1039.8839 34.6742 1.6505
2620.00 1500.6663 1039.9303 34.6746 1.6464
2630.00 1500.8250 1039.9766 34.6750 1.6423
2640.00 1500.9836 1040.0230 34.6754 1.6383
2650.00 1501.1423 1040.0694 34.6758 1.6342
2660.00 1501.3009 1040.1157 34.6762 1.6301
2670.00 1501.4596 1040.1621 34.6766 1.6261
2680.00 1501.6182 1040.2085 34.6770 1.6220
2690.00 1501.7768 1040.2548 34.6773 1.6180
2700.00 1501.9355 1040.3012 34.6777 1.6139
2710.00 1502.0941 1040.3476 34.6781 1.6098
2720.00 1502.2528 1040.3939 34.6785 1.6058
2730.00 1502.4118 1040.4403 34.6789 1.6018
2740.00 1502.5762 1040.4862 34.6792 1.5988
2750.00 1502.7405 1040.5322 34.6794 1.5958
2760.00 1502.9049 1040.5782 34.6797 1.5928
2770.00 1503.0692 1040.6241 34.6800 1.5898
2780.00 1503.2335 1040.6701 34.6802 1.5868
2790.00 1503.3979 1040.7161 34.6805 1.5838
2800.00 1503.5622 1040.7620 34.6808 1.5809
2810.00 1503.7265 1040.8080 34.6811 1.5779
2820.00 1503.8909 1040.8539 34.6813 1.5749
2830.00 1504.0552 1040.8999 34.6816 1.5719
2840.00 1504.2196 1040.9459 34.6819 1.5689
2850.00 1504.3839 1040.9918 34.6822 1.5659
2860.00 1504.5482 1041.0378 34.6824 1.5629
2870.00 1504.7126 1041.0838 34.6827 1.5599
2880.00 1504.8769 1041.1297 34.6830 1.5569
2890.00 1505.0412 1041.1757 34.6832 1.5539
2900.00 1505.2056 1041.2217 34.6835 1.5509
2910.00 1505.3699 1041.2676 34.6838 1.5479
2920.00 1505.5342 1041.3136 34.6841 1.5450
2930.00 1505.6986 1041.3595 34.6843 1.5420
2940.00 1505.8629 1041.4055 34.6846 1.5390
2950.00 1506.0273 1041.4515 34.6849 1.5360
2960.00 1506.1916 1041.4974 34.6851 1.5330
2970.00 1506.3559 1041.5434 34.6854 1.5300
2980.00 1506.5203 1041.5894 34.6857 1.5270
2990.00 1506.6846 1041.6353 34.6860 1.5240
3000.00 1506.8529 1041.6810 34.6862 1.5217
3010.00 1507.0212 1041.7266 34.6864 1.5193
3020.00 1507.1896 1041.7722 34.6866 1.5170
3030.00 1507.3580 1041.8178 34.6868 1.5147
3040.00 1507.5263 1041.8634 34.6870 1.5124
3050.00 1507.6947 1041.9091 34.6872 1.5100
3060.00 1507.8631 1041.9547 34.6874 1.5077
3070.00 1508.0314 1042.0003 34.6876 1.5054
3080.00 1508.1998 1042.0459 34.6878 1.5031
3090.00 1508.3682 1042.0915 34.6879 1.5008
3100.00 1508.5365 1042.1372 34.6881 1.4984
3110.00 1508.7049 1042.1828 34.6883 1.4961
3120.00 1508.8733 1042.2284 34.6885 1.4938
3130.00 1509.0416 1042.2740 34.6887 1.4915
3140.00 1509.2100 1042.3197 34.6889 1.4891
3150.00 1509.3784 1042.3653 34.6891 1.4868
3160.00 1509.5467 1042.4109 34.6893 1.4845
3170.00 1509.7151 1042.4565 34.6895 1.4822
3180.00 1509.8835 1042.5021 34.6897 1.4798
3190.00 1510.0518 1042.5478 34.6899 1.4775
3200.00 1510.2202 1042.5934 34.6901 1.4752
3210.00 1510.3886 1042.6390 34.6903 1.4729
3220.00 1510.5569 1042.6846 34.6905 1.4705
3230.00 1510.7253 1042.7303 34.6907 1.4682
3240.00 1510.8937 1042.7759 34.6909 1.4659
3250.00 1511.0621 1042.8215 34.6911 1.4636
3260.00 1511.2304 1042.8671 34.6913 1.4612
3270.00 1511.3988 1042.9127 34.6915 1.4589
3280.00 1511.5692 1042.9582 34.6917 1.4569
3290.00 1511.7411 1043.0035 34.6919 1.4551
3300.00 1511.9130 1043.0488 34.6920 1.4533
3310.00 1512.0850 1043.0941 34.6922 1.4515
3320.00 1512.2569 1043.1394 34.6923 1.4497
3330.00 1512.4288 1043.1847 34.6925 1.4479
3340.00 1512.6007 1043.2300 34.6927 1.4461
3350.00 1512.7726 1043.2753 34.6928 1.4443
3360.00 1512.9446 1043.3206 34.6930 1.4425
3370.00 1513.1165 1043.3659 34.6931 1.4408
3380.00 1513.2884 1043.4112 34.6933 1.4390
3390.00 1513.4603 1043.4565 34.6934 1.4372
3400.00 1513.6323 1043.5018 34.6936 1.4354
3410.00 1513.8042 1043.5471 34.6938 1.4336
3420.00 1513.9761 1043.5924 34.6939 1.4318
3430.00 1514.1480 1043.6377 34.6941 1.4300
3440.00 1514.3199 1043.6830 34.6942 1.4282
3450.00 1514.4919 1043.7283 34.6944 1.4264
3460.00 1514.6638 1043.7736 34.6946 1.4246
3470.00 1514.8357 1043.8189 34.6947 1.4228
3480.00 1515.0076 1043.8642 34.6949 1.4210
3490.00 1515.1796 1043.9095 34.6950 1.4192
3500.00 1515.3515 1043.9548 34.6952 1.4174
3510.00 1515.5234 1044.0001 34.6954 1.4157
3520.00 1515.6953 1044.0455 34.6955 1.4139
3530.00 1515.8672 1044.0908 34.6957 1.4121
3540.00 1516.0392 1044.1361 34.6958 1.4103
3550.00 1516.2111 1044.1814 34.6960 1.4085
3560.00 1516.3830 1044.2267 34.6962 1.4067
3570.00 1516.5549 1044.2720 34.6963 1.4049
3580.00 1516.7268 1044.3173 34.6965 1.4031
3590.00 1516.9053 1044.3621 34.6965 1.4026
3600.00 1517.0848 1044.4068 34.6966 1.4022
3610.00 1517.2642 1044.4516 34.6966 1.4018
3620.00 1517.4437 1044.4963 34.6966 1.4015
3630.00 1517.6231 1044.5410 34.6967 1.4011
3640.00 1517.8025 1044.5858 34.6967 1.4008
3650.00 1517.9820 1044.6305 34.6968 1.4004
3660.00 1518.1614 1044.6753 34.6968 1.4000
3670.00 1518.3409 1044.7200 34.6968 1.3997
3680.00 1518.5203 1044.7647 34.6969 1.3993
3690.00 1518.6997 1044.8095 34.6969 1.3990
3700.00 1518.8792 1044.8542 34.6969 1.3986
3710.00 1519.0586 1044.8990 34.6970 1.3982
3720.00 1519.2380 1044.9437 34.6970 1.3979
3730.00 1519.4175 1044.9884 34.6971 1.3975
3740.00 1519.5969 1045.0332 34.6971 1.3972
3750.00 1519.7764 1045.0779 34.6971 1.3968
3760.00 1519.9558 1045.1227 34.6972 1.3964
3770.00 1520.1352 1045.1674 34.6972 1.3961
3780.00 1520.3147 1045.2121 34.6973 1.3957
3790.00 1520.4941 1045.2569 34.6973 1.3954
3800.00 1520.6736 1045.3016 34.6973 1.3950
3810.00 1520.8530 1045.3464 34.6974 1.3946
3820.00 1521.0324 1045.3911 34.6974 1.3943
3830.00 1521.2119 1045.4358 34.6974 1.3939
3840.00 1521.3913 1045.4806 34.6975 1.3936
3850.00 1521.5708 1045.5253 34.6975 1.3932
3860.00 1521.7502 1045.5701 34.6976 1.3928
3870.00 1521.9296 1045.6148 34.6976 1.3925
3880.00 1522.1091 1045.6595 34.6976 1.3921
3890.00 1522.2885 1045.7043 34.6977 1.3917
3900.00 1522.4679 1045.7490 34.6977 1.3914
3910.00 1522.6474 1045.7938 34.6977 1.3910
3920.00 1522.6921 1045.8471 34.7012 1.3586
3930.00 1522.8744 1045.8915 34.7012 1.3586
3940.00 1523.0567 1045.9359 34.7012 1.3586
3950.00 1523.2390 1045.9803 34.7012 1.3586
