# Averages over distance (i) for each depth (k):
# Depth(m) Speed(m/s) Density(kg/m^3) Salt PSU Theta(degC)
0.00 1531.7341 1024.2215 35.6163 23.6255
10.00 1531.8152 1024.2764 35.6172 23.5891
20.00 1531.6727 1024.3595 35.6203 23.4621
30.00 1531.1901 1024.4832 35.6248 23.1994
40.00 1530.5455 1024.6219 35.6264 22.8760
50.00 1529.8452 1024.7624 35.6251 22.5352
60.00 1529.1484 1024.8992 35.6219 22.1999
70.00 1528.4889 1025.0292 35.6175 21.8826
80.00 1527.8918 1025.1501 35.6122 21.5924
90.00 1527.3770 1025.2605 35.6061 21.3360
100.00 1526.9263 1025.3622 35.5989 21.1059
110.00 1526.4908 1025.4601 35.5900 20.8838
120.00 1526.0327 1025.5582 35.5796 20.6555
130.00 1525.5381 1025.6582 35.5681 20.4157
140.00 1525.0061 1025.7604 35.5559 20.1640
150.00 1524.4222 1025.8653 35.5426 19.8964
160.00 1523.8230 1025.9703 35.5287 19.6254
170.00 1523.2115 1026.0753 35.5145 19.3517
180.00 1522.6058 1026.1772 35.4993 19.0837
190.00 1522.0021 1026.2780 35.4838 18.8175
200.00 1521.3930 1026.3766 35.4667 18.5527
210.00 1520.7791 1026.4731 35.4481 18.2892
220.00 1520.1652 1026.5697 35.4296 18.0258
230.00 1519.4779 1026.6658 35.4065 17.7441
240.00 1518.7633 1026.7618 35.3817 17.4556
250.00 1518.0487 1026.8579 35.3569 17.1672
260.00 1517.2821 1026.9547 35.3299 16.8651
270.00 1516.3619 1027.0537 35.2962 16.5228
280.00 1515.4417 1027.1527 35.2626 16.1806
290.00 1514.5215 1027.2518 35.2290 15.8383
300.00 1513.5999 1027.3508 35.1953 15.4957
310.00 1512.4748 1027.4499 35.1551 15.1078
320.00 1511.3497 1027.5490 35.1150 14.7199
330.00 1510.2246 1027.6481 35.0748 14.3320
340.00 1509.0995 1027.7472 35.0347 13.9441
350.00 1507.9744 1027.8463 34.9945 13.5562
360.00 1506.8263 1027.9374 34.9559 13.1808
370.00 1505.6765 1028.0279 34.9174 12.8063
380.00 1504.5268 1028.1184 34.8788 12.4318
390.00 1503.3770 1028.2089 34.8403 12.0572
400.00 1502.2272 1028.2994 34.8018 11.6827
410.00 1501.0789 1028.3898 34.7633 11.3087
420.00 1500.1410 1028.4666 34.7342 11.0103
430.00 1499.2030 1028.5434 34.7051 10.7119
440.00 1498.2651 1028.6202 34.6759 10.4134
450.00 1497.3271 1028.6970 34.6468 10.1150
460.00 1496.3892 1028.7738 34.6177 9.8166
470.00 1495.4512 1028.8506 34.5885 9.5181
480.00 1494.5928 1028.9245 34.5622 9.2434
490.00 1493.9692 1028.9898 34.5442 9.0384
500.00 1493.3456 1029.0551 34.5263 8.8334
510.00 1492.7219 1029.1204 34.5083 8.6284
520.00 1492.0983 1029.1857 34.4903 8.4234
530.00 1491.4747 1029.2510 34.4723 8.2184
540.00 1490.8510 1029.3163 34.4543 8.0134
550.00 1490.2274 1029.3816 34.4363 7.8084
560.00 1489.8009 1029.4420 34.4247 7.6570
570.00 1489.4478 1029.5005 34.4154 7.5257
580.00 1489.0946 1029.5591 34.4060 7.3943
590.00 1488.7414 1029.6176 34.3967 7.2629
600.00 1488.3882 1029.6761 34.3874 7.1315
610.00 1488.0350 1029.7347 34.3781 7.0001
620.00 1487.6818 1029.7932 34.3687 6.8687
630.00 1487.3286 1029.8518 34.3594 6.7373
640.00 1487.0618 1029.9088 34.3530 6.6284
650.00 1486.8726 1029.9645 34.3491 6.5395
660.00 1486.6834 1030.0203 34.3452 6.4507
670.00 1486.4942 1030.0760 34.3414 6.3619
680.00 1486.3050 1030.1317 34.3375 6.2731
690.00 1486.1159 1030.1874 34.3336 6.1842
700.00 1485.9267 1030.2432 34.3297 6.0954
710.00 1485.7375 1030.2989 34.3259 6.0066
720.00 1485.5483 1030.3546 34.3220 5.9178
730.00 1485.4220 1030.4099 34.3207 5.8448
740.00 1485.3155 1030.4650 34.3203 5.7769
750.00 1485.2090 1030.5201 34.3198 5.7089
760.00 1485.1025 1030.5753 34.3194 5.6410
770.00 1484.9960 1030.6304 34.3189 5.5730
780.00 1484.8895 1030.6855 34.3185 5.5051
790.00 1484.7831 1030.7406 34.3181 5.4371
800.00 1484.6766 1030.7957 34.3176 5.3692
810.00 1484.5701 1030.8509 34.3172 5.3012
820.00 1484.4875 1030.9061 34.3180 5.2392
830.00 1484.4243 1030.9613 34.3198 5.1820
840.00 1484.3611 1031.0166 34.3217 5.1248
850.00 1484.2979 1031.0719 34.3235 5.0677
860.00 1484.2347 1031.1271 34.3254 5.0105
870.00 1484.1715 1031.1824 34.3272 4.9533
880.00 1484.1083 1031.2377 34.3291 4.8961
890.00 1484.0451 1031.2929 34.3309 4.8389
900.00 1483.9819 1031.3482 34.3328 4.7817
910.00 1483.9194 1031.4035 34.3347 4.7247
920.00 1483.8838 1031.4589 34.3380 4.6744
930.00 1483.8483 1031.5142 34.3413 4.6241
940.00 1483.8127 1031.5696 34.3447 4.5737
950.00 1483.7771 1031.6250 34.3480 4.5234
960.00 1483.7416 1031.6804 34.3513 4.4731
970.00 1483.7060 1031.7358 34.3546 4.4228
980.00 1483.6704 1031.7912 34.3580 4.3724
990.00 1483.6349 1031.8466 34.3613 4.3221
1000.00 1483.5993 1031.9020 34.3646 4.2718
1010.00 1483.5703 1031.9573 34.3682 4.2231
1020.00 1483.5580 1032.0125 34.3723 4.1786
1030.00 1483.5456 1032.0677 34.3764 4.1340
1040.00 1483.5332 1032.1228 34.3805 4.0895
1050.00 1483.5208 1032.1780 34.3846 4.0450
1060.00 1483.5084 1032.2331 34.3887 4.0004
1070.00 1483.4960 1032.2883 34.3928 3.9559
1080.00 1483.4836 1032.3435 34.3969 3.9113
1090.00 1483.4712 1032.3986 34.4010 3.8668
1100.00 1483.4588 1032.4538 34.4051 3.8223
1110.00 1483.4553 1032.5087 34.4093 3.7799
1120.00 1483.4645 1032.5633 34.4136 3.7408
1130.00 1483.4737 1032.6178 34.4179 3.7016
1140.00 1483.4829 1032.6724 34.4222 3.6625
1150.00 1483.4921 1032.7270 34.4265 3.6234
1160.00 1483.5013 1032.7816 34.4308 3.5842
1170.00 1483.5105 1032.8361 34.4351 3.5451
1180.00 1483.5198 1032.8907 34.4395 3.5060
1190.00 1483.5290 1032.9453 34.4438 3.4668
1200.00 1483.5382 1032.9998 34.4481 3.4277
1210.00 1483.5573 1033.0540 34.4523 3.3910
1220.00 1483.5886 1033.1076 34.4564 3.3574
1230.00 1483.6199 1033.1613 34.4604 3.3237
1240.00 1483.6512 1033.2149 34.4645 3.2901
1250.00 1483.6825 1033.2686 34.4686 3.2564
1260.00 1483.7138 1033.3222 34.4727 3.2228
1270.00 1483.7451 1033.3758 34.4767 3.1892
1280.00 1483.7765 1033.4295 34.4808 3.1555
1290.00 1483.8078 1033.4831 34.4849 3.1219
1300.00 1483.8391 1033.5368 34.4890 3.0883
1310.00 1483.8800 1033.5899 34.4928 3.0570
1320.00 1483.9366 1033.6423 34.4963 3.0295
1330.00 1483.9933 1033.6947 34.4999 3.0021
1340.00 1484.0499 1033.7471 34.5034 2.9746
1350.00 1484.1065 1033.7995 34.5069 2.9472
1360.00 1484.1631 1033.8519 34.5104 2.9197
1370.00 1484.2198 1033.9043 34.5140 2.8923
1380.00 1484.2764 1033.9567 34.5175 2.8648
1390.00 1484.3330 1034.0091 34.5210 2.8374
1400.00 1484.3896 1034.0615 34.5245 2.8099
1410.00 1484.4485 1034.1138 34.5280 2.7830
1420.00 1484.5321 1034.1648 34.5308 2.7620
1430.00 1484.6156 1034.2158 34.5337 2.7411
1440.00 1484.6992 1034.2668 34.5365 2.7201
1450.00 1484.7827 1034.3179 34.5394 2.6991
1460.00 1484.8663 1034.3689 34.5422 2.6781
1470.00 1484.9498 1034.4199 34.5450 2.6571
1480.00 1485.0334 1034.4709 34.5479 2.6361
1490.00 1485.1169 1034.5219 34.5507 2.6152
1500.00 1485.2005 1034.5730 34.5536 2.5942
1510.00 1485.2840 1034.6240 34.5564 2.5732
1520.00 1485.3743 1034.6746 34.5591 2.5538
1530.00 1485.4813 1034.7244 34.5613 2.5384
1540.00 1485.5882 1034.7742 34.5635 2.5229
1550.00 1485.6951 1034.8240 34.5657 2.5075
1560.00 1485.8020 1034.8737 34.5679 2.4920
1570.00 1485.9089 1034.9235 34.5701 2.4766
1580.00 1486.0158 1034.9733 34.5723 2.4611
1590.00 1486.1228 1035.0231 34.5745 2.4457
1600.00 1486.2297 1035.0728 34.5767 2.4302
1610.00 1486.3366 1035.1226 34.5789 2.4148
1620.00 1486.4435 1035.1724 34.5811 2.3994
1630.00 1486.5504 1035.2221 34.5833 2.3839
1640.00 1486.6672 1035.2713 34.5852 2.3708
1650.00 1486.7911 1035.3201 34.5869 2.3593
1660.00 1486.9150 1035.3689 34.5885 2.3478
1670.00 1487.0388 1035.4177 34.5901 2.3363
1680.00 1487.1627 1035.4665 34.5918 2.3248
1690.00 1487.2866 1035.5153 34.5934 2.3133
1700.00 1487.4104 1035.5641 34.5951 2.3019
1710.00 1487.5343 1035.6129 34.5967 2.2904
1720.00 1487.6582 1035.6617 34.5984 2.2789
1730.00 1487.7820 1035.7105 34.6000 2.2674
1740.00 1487.9059 1035.7593 34.6017 2.2559
1750.00 1488.0298 1035.8081 34.6033 2.2444
1760.00 1488.1536 1035.8569 34.6050 2.2330
1770.00 1488.2828 1035.9053 34.6064 2.2227
1780.00 1488.4175 1035.9534 34.6076 2.2137
1790.00 1488.5523 1036.0014 34.6088 2.2047
1800.00 1488.6870 1036.0495 34.6100 2.1957
1810.00 1488.8217 1036.0976 34.6112 2.1868
1820.00 1488.9565 1036.1456 34.6124 2.1778
1830.00 1489.0912 1036.1937 34.6136 2.1688
1840.00 1489.2259 1036.2417 34.6148 2.1598
1850.00 1489.3607 1036.2898 34.6160 2.1508
1860.00 1489.4954 1036.3379 34.6172 2.1418
1870.00 1489.6301 1036.3859 34.6184 2.1329
1880.00 1489.7649 1036.4340 34.6197 2.1239
1890.00 1489.8996 1036.4820 34.6209 2.1149
1900.00 1490.0343 1036.5301 34.6221 2.1059
1910.00 1490.1691 1036.5782 34.6233 2.0969
1920.00 1490.3078 1036.6259 34.6243 2.0888
1930.00 1490.4493 1036.6734 34.6251 2.0813
1940.00 1490.5908 1036.7210 34.6260 2.0739
1950.00 1490.7323 1036.7685 34.6269 2.0664
1960.00 1490.8738 1036.8160 34.6277 2.0589
1970.00 1491.0153 1036.8635 34.6286 2.0514
1980.00 1491.1568 1036.9111 34.6295 2.0439
1990.00 1491.2983 1036.9586 34.6303 2.0365
2000.00 1491.4398 1037.0061 34.6312 2.0290
2010.00 1491.5813 1037.0536 34.6321 2.0215
2020.00 1491.7228 1037.1012 34.6329 2.0140
2030.00 1491.8643 1037.1487 34.6338 2.0065
2040.00 1492.0058 1037.1962 34.6346 1.9991
2050.00 1492.1473 1037.2437 34.6355 1.9916
2060.00 1492.2888 1037.2913 34.6364 1.9841
2070.00 1492.4303 1037.3388 34.6372 1.9766
2080.00 1492.5719 1037.3863 34.6381 1.9691
2090.00 1492.7161 1037.4336 34.6388 1.9622
2100.00 1492.8622 1037.4807 34.6395 1.9557
2110.00 1493.0084 1037.5278 34.6401 1.9492
2120.00 1493.1545 1037.5749 34.6407 1.9427
2130.00 1493.3006 1037.6221 34.6414 1.9361
2140.00 1493.4468 1037.6692 34.6420 1.9296
2150.00 1493.5929 1037.7163 34.6426 1.9231
2160.00 1493.7390 1037.7634 34.6432 1.9166
2170.00 1493.8851 1037.8105 34.6439 1.9100
2180.00 1494.0313 1037.8577 34.6445 1.9035
2190.00 1494.1774 1037.9048 34.6451 1.8970
2200.00 1494.3235 1037.9519 34.6458 1.8905
2210.00 1494.4697 1037.9990 34.6464 1.8839
2220.00 1494.6158 1038.0461 34.6470 1.8774
2230.00 1494.7619 1038.0932 34.6477 1.8709
2240.00 1494.9081 1038.1404 34.6483 1.8644
2250.00 1495.0542 1038.1875 34.6489 1.8578
2260.00 1495.2003 1038.2346 34.6496 1.8513
2270.00 1495.3464 1038.2817 34.6502 1.8448
2280.00 1495.4940 1038.3287 34.6508 1.8385
2290.00 1495.6441 1038.3755 34.6512 1.8328
2300.00 1495.7941 1038.4223 34.6517 1.8270
2310.00 1495.9441 1038.4691 34.6522 1.8212
2320.00 1496.0941 1038.5158 34.6526 1.8154
2330.00 1496.2442 1038.5626 34.6531 1.8096
2340.00 1496.3942 1038.6094 34.6536 1.8039
2350.00 1496.5442 1038.6562 34.6541 1.7981
2360.00 1496.6943 1038.7030 34.6545 1.7923
2370.00 1496.8443 1038.7497 34.6550 1.7865
2380.00 1496.9943 1038.7965 34.6555 1.7807
2390.00 1497.1443 1038.8433 34.6560 1.7749
2400.00 1497.2944 1038.8901 34.6564 1.7692
2410.00 1497.4444 1038.9369 34.6569 1.7634
2420.00 1497.5944 1038.9836 34.6574 1.7576
2430.00 1497.7444 1039.0304 34.6578 1.7518
2440.00 1497.8945 1039.0772 34.6583 1.7460
2450.00 1498.0445 1039.1240 34.6588 1.7403
2460.00 1498.1945 1039.1708 34.6593 1.7345
2470.00 1498.3446 1039.2175 34.6597 1.7287
2480.00 1498.4946 1039.2643 34.6602 1.7229
2490.00 1498.6446 1039.3111 34.6607 1.7171
2500.00 1498.7978 1039.3576 34.6611 1.7119
2510.00 1498.9515 1039.4041 34.6614 1.7068
2520.00 1499.1051 1039.4506 34.6618 1.7016
2530.00 1499.2588 1039.4971 34.6622 1.6965
2540.00 1499.4125 1039.5436 34.6626 1.6913
2550.00 1499.5661 1039.5900 34.6629 1.6862
2560.00 1499.7198 1039.6365 34.6633 1.6810
2570.00 1499.8734 1039.6830 34.6637 1.6759
2580.00 1500.0271 1039.7295 34.6641 1.6708
2590.00 1500.1808 1039.7760 34.6644 1.6656
2600.00 1500.3344 1039.8225 34.6648 1.6605
2610.00 1500.4881 1039.8690 34.6652 1.6553
2620.00 1500.6417 1039.9154 34.6656 1.6502
2630.00 1500.7954 1039.9619 34.6659 1.6450
2640.00 1500.9491 1040.0084 34.6663 1.6399
2650.00 1501.1027 1040.0549 34.6667 1.6347
2660.00 1501.2564 1040.1014 34.6670 1.6296
2670.00 1501.4100 1040.1479 34.6674 1.6245
2680.00 1501.5637 1040.1943 34.6678 1.6193
2690.00 1501.7174 1040.2408 34.6682 1.6142
2700.00 1501.8710 1040.2873 34.6685 1.6090
2710.00 1502.0247 1040.3338 34.6689 1.6039
2720.00 1502.1783 1040.3803 34.6693 1.5987
2730.00 1502.3323 1040.4267 34.6697 1.5936
2740.00 1502.4893 1040.4730 34.6700 1.5890
2750.00 1502.6463 1040.5192 34.6703 1.5844
2760.00 1502.8033 1040.5654 34.6706 1.5798
2770.00 1502.9604 1040.6116 34.6709 1.5752
2780.00 1503.1174 1040.6578 34.6712 1.5706
2790.00 1503.2744 1040.7040 34.6715 1.5660
2800.00 1503.4315 1040.7502 34.6719 1.5614
2810.00 1503.5885 1040.7964 34.6722 1.5568
2820.00 1503.7455 1040.8427 34.6725 1.5522
2830.00 1503.9026 1040.8889 34.6728 1.5476
2840.00 1504.0596 1040.9351 34.6731 1.5430
2850.00 1504.2166 1040.9813 34.6734 1.5384
2860.00 1504.3737 1041.0275 34.6737 1.5338
2870.00 1504.5307 1041.0737 34.6741 1.5292
2880.00 1504.6877 1041.1199 34.6744 1.5246
2890.00 1504.8448 1041.1662 34.6747 1.5200
2900.00 1505.0018 1041.2124 34.6750 1.5154
2910.00 1505.1588 1041.2586 34.6753 1.5108
2920.00 1505.3159 1041.3048 34.6756 1.5062
2930.00 1505.4729 1041.3510 34.6759 1.5016
2940.00 1505.6299 1041.3972 34.6763 1.4970
2950.00 1505.7870 1041.4434 34.6766 1.4924
2960.00 1505.9440 1041.4896 34.6769 1.4878
2970.00 1506.1010 1041.5359 34.6772 1.4832
2980.00 1506.2580 1041.5821 34.6775 1.4786
2990.00 1506.4151 1041.6283 34.6778 1.4739
3000.00 1506.5749 1041.6743 34.6781 1.4697
3010.00 1506.7348 1041.7202 34.6784 1.4655
3020.00 1506.8947 1041.7662 34.6787 1.4613
3030.00 1507.0547 1041.8121 34.6790 1.4571
3040.00 1507.2146 1041.8581 34.6792 1.4529
3050.00 1507.3745 1041.9041 34.6795 1.4487
3060.00 1507.5344 1041.9500 34.6798 1.4445
3070.00 1507.6943 1041.9960 34.6801 1.4403
3080.00 1507.8542 1042.0420 34.6804 1.4361
3090.00 1508.0141 1042.0879 34.6807 1.4319
3100.00 1508.1740 1042.1339 34.6809 1.4277
3110.00 1508.3339 1042.1798 34.6812 1.4235
3120.00 1508.4939 1042.2258 34.6815 1.4193
3130.00 1508.6538 1042.2718 34.6818 1.4151
3140.00 1508.8137 1042.3177 34.6821 1.4109
3150.00 1508.9736 1042.3637 34.6823 1.4067
3160.00 1509.1335 1042.4097 34.6826 1.4025
3170.00 1509.2934 1042.4556 34.6829 1.3983
3180.00 1509.4533 1042.5016 34.6832 1.3941
3190.00 1509.6132 1042.5476 34.6835 1.3899
3200.00 1509.7731 1042.5935 34.6838 1.3857
3210.00 1509.9331 1042.6395 34.6840 1.3815
3220.00 1510.0930 1042.6854 34.6843 1.3773
3230.00 1510.2529 1042.7314 34.6846 1.3731
3240.00 1510.4128 1042.7774 34.6849 1.3689
3250.00 1510.5727 1042.8233 34.6852 1.3647
3260.00 1510.7326 1042.8693 34.6855 1.3605
3270.00 1510.8925 1042.9153 34.6857 1.3563
3280.00 1511.0542 1042.9611 34.6860 1.3523
3290.00 1511.2170 1043.0068 34.6863 1.3485
3300.00 1511.3799 1043.0525 34.6865 1.3447
3310.00 1511.5428 1043.0982 34.6868 1.3409
3320.00 1511.7057 1043.1439 34.6870 1.3371
3330.00 1511.8686 1043.1896 34.6873 1.3333
3340.00 1512.0315 1043.2353 34.6875 1.3295
3350.00 1512.1944 1043.2810 34.6878 1.3257
3360.00 1512.3573 1043.3266 34.6880 1.3219
3370.00 1512.5202 1043.3723 34.6883 1.3180
3380.00 1512.6831 1043.4180 34.6885 1.3142
3390.00 1512.8459 1043.4637 34.6888 1.3104
3400.00 1513.0088 1043.5094 34.6890 1.3066
3410.00 1513.1717 1043.5551 34.6893 1.3028
3420.00 1513.3346 1043.6008 34.6895 1.2990
3430.00 1513.4975 1043.6465 34.6898 1.2952
3440.00 1513.6604 1043.6922 34.6901 1.2914
3450.00 1513.8233 1043.7379 34.6903 1.2876
3460.00 1513.9862 1043.7836 34.6906 1.2838
3470.00 1514.1491 1043.8293 34.6908 1.2800
3480.00 1514.3119 1043.8750 34.6911 1.2762
3490.00 1514.4748 1043.9207 34.6913 1.2724
3500.00 1514.6377 1043.9664 34.6916 1.2686
3510.00 1514.8006 1044.0121 34.6918 1.2648
3520.00 1514.9635 1044.0578 34.6921 1.2610
3530.00 1515.1264 1044.1035 34.6923 1.2572
3540.00 1515.2893 1044.1492 34.6926 1.2534
3550.00 1515.4522 1044.1949 34.6928 1.2496
3560.00 1515.6151 1044.2406 34.6931 1.2458
3570.00 1515.7780 1044.2863 34.6934 1.2420
3580.00 1515.9408 1044.3320 34.6936 1.2382
3590.00 1516.1047 1044.3775 34.6939 1.2343
3600.00 1516.2687 1044.4230 34.6941 1.2305
3610.00 1516.4327 1044.4685 34.6943 1.2266
3620.00 1516.5967 1044.5140 34.6946 1.2228
3630.00 1516.7607 1044.5595 34.6948 1.2190
3640.00 1516.9247 1044.6050 34.6951 1.2151
3650.00 1517.0887 1044.6505 34.6953 1.2113
3660.00 1517.2526 1044.6960 34.6956 1.2074
3670.00 1517.4166 1044.7415 34.6958 1.2036
3680.00 1517.5806 1044.7870 34.6961 1.1997
3690.00 1517.7446 1044.8325 34.6963 1.1959
3700.00 1517.9086 1044.8780 34.6966 1.1920
3710.00 1518.0726 1044.9236 34.6968 1.1882
3720.00 1518.2366 1044.9691 34.6971 1.1844
3730.00 1518.4006 1045.0146 34.6973 1.1805
3740.00 1518.5646 1045.0601 34.6976 1.1767
3750.00 1518.7286 1045.1056 34.6978 1.1728
3760.00 1518.8926 1045.1511 34.6980 1.1690
3770.00 1519.0566 1045.1966 34.6983 1.1651
3780.00 1519.2206 1045.2421 34.6985 1.1613
3790.00 1519.3845 1045.2876 34.6988 1.1574
3800.00 1519.5485 1045.3331 34.6990 1.1536
3810.00 1519.7125 1045.3786 34.6993 1.1497
3820.00 1519.8765 1045.4241 34.6995 1.1459
3830.00 1520.0405 1045.4696 34.6998 1.1421
3840.00 1520.2045 1045.5151 34.7000 1.1382
3850.00 1520.3685 1045.5606 34.7003 1.1344
3860.00 1520.5325 1045.6061 34.7005 1.1305
3870.00 1520.6965 1045.6516 34.7008 1.1267
3880.00 1520.8605 1045.6971 34.7010 1.1228
3890.00 1521.0245 1045.7426 34.7013 1.1190
3900.00 1521.1885 1045.7881 34.7015 1.1151
3910.00 1521.3524 1045.8336 34.7017 1.1113
3920.00 1521.5183 1045.8789 34.7020 1.1076
3930.00 1521.6845 1045.9241 34.7022 1.1040
3940.00 1521.8506 1045.9693 34.7024 1.1003
3950.00 1522.0167 1046.0146 34.7026 1.0966
3960.00 1522.1829 1046.0598 34.7028 1.0930
3970.00 1522.3490 1046.1050 34.7030 1.0893
3980.00 1522.5151 1046.1503 34.7032 1.0857
3990.00 1522.6813 1046.1955 34.7034 1.0820
4000.00 1522.8474 1046.2407 34.7036 1.0783
4010.00 1523.0135 1046.2859 34.7038 1.0747
4020.00 1523.1797 1046.3312 34.7040 1.0710
4030.00 1523.3458 1046.3764 34.7042 1.0674
4040.00 1523.5120 1046.4216 34.7044 1.0637
4050.00 1523.6781 1046.4669 34.7046 1.0600
4060.00 1523.8442 1046.5121 34.7048 1.0564
4070.00 1524.0104 1046.5573 34.7050 1.0527
4080.00 1524.1765 1046.6025 34.7052 1.0491
4090.00 1524.3426 1046.6478 34.7054 1.0454
4100.00 1524.5088 1046.6930 34.7056 1.0417
4110.00 1524.6749 1046.7382 34.7059 1.0381
4120.00 1524.8411 1046.7835 34.7061 1.0344
4130.00 1525.0072 1046.8287 34.7063 1.0308
4140.00 1525.1733 1046.8739 34.7065 1.0271
4150.00 1525.3395 1046.9192 34.7067 1.0235
4160.00 1525.5056 1046.9644 34.7069 1.0198
4170.00 1525.6717 1047.0096 34.7071 1.0161
4180.00 1525.8379 1047.0548 34.7073 1.0125
4190.00 1526.0040 1047.1001 34.7075 1.0088
4200.00 1526.1702 1047.1453 34.7077 1.0052
4210.00 1526.3363 1047.1905 34.7079 1.0015
4220.00 1526.5024 1047.2358 34.7081 0.9978
4230.00 1526.6686 1047.2810 34.7083 0.9942
4240.00 1526.8347 1047.3262 34.7085 0.9905
4250.00 1527.0008 1047.3714 34.7087 0.9869
4260.00 1527.1670 1047.4167 34.7089 0.9832
4270.00 1527.3428 1047.4613 34.7090 0.9815
4280.00 1527.5258 1047.5055 34.7090 0.9814
4290.00 1527.7087 1047.5497 34.7090 0.9812
4300.00 1527.8917 1047.5939 34.7090 0.9811
4310.00 1528.0746 1047.6381 34.7090 0.9809
4320.00 1528.2576 1047.6823 34.7091 0.9807
4330.00 1528.4406 1047.7265 34.7091 0.9806
4340.00 1528.6235 1047.7707 34.7091 0.9804
4350.00 1528.8065 1047.8149 34.7091 0.9802
4360.00 1528.9895 1047.8592 34.7091 0.9801
4370.00 1529.1724 1047.9034 34.7091 0.9799
4380.00 1529.3554 1047.9476 34.7091 0.9798
4390.00 1529.5384 1047.9918 34.7091 0.9796
4400.00 1529.7213 1048.0360 34.7091 0.9794
4410.00 1529.9043 1048.0802 34.7091 0.9793
4420.00 1530.0873 1048.1244 34.7091 0.9791
4430.00 1530.2702 1048.1686 34.7091 0.9789
4440.00 1530.4532 1048.2128 34.7091 0.9788
4450.00 1530.6361 1048.2570 34.7091 0.9786
4460.00 1530.8191 1048.3012 34.7092 0.9784
4470.00 1531.0021 1048.3454 34.7092 0.9783
4480.00 1531.1850 1048.3896 34.7092 0.9781
4490.00 1531.3680 1048.4338 34.7092 0.9780
4500.00 1531.5510 1048.4780 34.7092 0.9778
4510.00 1531.7339 1048.5222 34.7092 0.9776
4520.00 1531.9169 1048.5664 34.7092 0.9775
4530.00 1532.0999 1048.6106 34.7092 0.9773
4540.00 1532.2828 1048.6548 34.7092 0.9771
4550.00 1532.4658 1048.6990 34.7092 0.9770
4560.00 1532.6488 1048.7432 34.7092 0.9768
4570.00 1532.8317 1048.7874 34.7092 0.9767
4580.00 1533.0147 1048.8317 34.7092 0.9765
4590.00 1533.1976 1048.8759 34.7092 0.9763
