# Averages over distance (i) for each depth (k):
# Depth(m) Speed(m/s) Density(kg/m^3) Salt PSU Theta(degC)
0.00 1540.7097 1022.7733 35.3284 27.5990
10.00 1540.8127 1022.8262 35.3283 27.5686
20.00 1540.9225 1022.8787 35.3287 27.5409
30.00 1541.0402 1022.9313 35.3306 27.5160
40.00 1541.1527 1022.9862 35.3342 27.4879
50.00 1541.2372 1023.0478 35.3406 27.4458
60.00 1541.2533 1023.1241 35.3523 27.3702
70.00 1541.1527 1023.2239 35.3712 27.2388
80.00 1540.8759 1023.3557 35.3980 27.0256
90.00 1540.3305 1023.5327 35.4337 26.6908
100.00 1539.3462 1023.7744 35.4767 26.1655
110.00 1537.6518 1024.1038 35.5190 25.3481
120.00 1534.9944 1024.5268 35.5460 24.1632
130.00 1531.3889 1025.0107 35.5436 22.6566
140.00 1527.1234 1025.5049 35.5075 20.9682
150.00 1522.8223 1025.9141 35.4359 19.3849
160.00 1518.9285 1026.2553 35.3602 17.9957
170.00 1515.3641 1026.5416 35.2810 16.7633
180.00 1512.5918 1026.7514 35.2130 15.8313
190.00 1510.0696 1026.9369 35.1486 14.9942
200.00 1508.0406 1027.0889 35.0953 14.3233
210.00 1506.4550 1027.2109 35.0518 13.8020
220.00 1504.8695 1027.3329 35.0084 13.2807
230.00 1503.7457 1027.4305 34.9768 12.9046
240.00 1502.7936 1027.5191 34.9497 12.5825
250.00 1501.8414 1027.6077 34.9225 12.2604
260.00 1500.9751 1027.6924 34.8978 11.9643
270.00 1500.3619 1027.7656 34.8801 11.7451
280.00 1499.7487 1027.8389 34.8624 11.5259
290.00 1499.1355 1027.9122 34.8447 11.3068
300.00 1498.5233 1027.9855 34.8271 11.0879
310.00 1498.0589 1028.0525 34.8142 10.9141
320.00 1497.5946 1028.1196 34.8013 10.7403
330.00 1497.1302 1028.1866 34.7884 10.5665
340.00 1496.6658 1028.2537 34.7756 10.3927
350.00 1496.2014 1028.3207 34.7627 10.2189
360.00 1495.8018 1028.3851 34.7524 10.0657
370.00 1495.4069 1028.4492 34.7424 9.9141
380.00 1495.0121 1028.5133 34.7323 9.7624
390.00 1494.6172 1028.5774 34.7223 9.6108
400.00 1494.2223 1028.6415 34.7122 9.4592
410.00 1493.8278 1028.7056 34.7022 9.3076
420.00 1493.4890 1028.7675 34.6944 9.1738
430.00 1493.1501 1028.8294 34.6867 9.0399
440.00 1492.8113 1028.8912 34.6790 8.9061
450.00 1492.4724 1028.9531 34.6712 8.7722
460.00 1492.1336 1029.0149 34.6635 8.6384
470.00 1491.7947 1029.0768 34.6557 8.5045
480.00 1491.4717 1029.1381 34.6485 8.3754
490.00 1491.1955 1029.1977 34.6430 8.2604
500.00 1490.9193 1029.2573 34.6374 8.1453
510.00 1490.6430 1029.3170 34.6318 8.0302
520.00 1490.3668 1029.3766 34.6262 7.9152
530.00 1490.0906 1029.4363 34.6206 7.8001
540.00 1489.8144 1029.4959 34.6150 7.6850
550.00 1489.5382 1029.5555 34.6094 7.5699
560.00 1489.3087 1029.6137 34.6052 7.4682
570.00 1489.0967 1029.6713 34.6015 7.3715
580.00 1488.8847 1029.7289 34.5978 7.2747
590.00 1488.6727 1029.7865 34.5941 7.1780
600.00 1488.4606 1029.8441 34.5904 7.0812
610.00 1488.2486 1029.9018 34.5867 6.9845
620.00 1488.0366 1029.9594 34.5829 6.8877
630.00 1487.8246 1030.0170 34.5792 6.7910
640.00 1487.6435 1030.0737 34.5763 6.7028
650.00 1487.4904 1030.1297 34.5741 6.6222
660.00 1487.3373 1030.1856 34.5719 6.5417
670.00 1487.1841 1030.2415 34.5697 6.4611
680.00 1487.0310 1030.2975 34.5676 6.3806
690.00 1486.8779 1030.3534 34.5654 6.3000
700.00 1486.7247 1030.4093 34.5632 6.2195
710.00 1486.5716 1030.4653 34.5610 6.1389
720.00 1486.4184 1030.5212 34.5588 6.0584
730.00 1486.3043 1030.5761 34.5575 5.9882
740.00 1486.2024 1030.6307 34.5564 5.9214
750.00 1486.1005 1030.6853 34.5554 5.8545
760.00 1485.9986 1030.7399 34.5544 5.7876
770.00 1485.8967 1030.7944 34.5534 5.7207
780.00 1485.7949 1030.8490 34.5523 5.6539
790.00 1485.6930 1030.9036 34.5513 5.5870
800.00 1485.5911 1030.9582 34.5503 5.5201
810.00 1485.4892 1031.0128 34.5493 5.4532
820.00 1485.4109 1031.0668 34.5487 5.3925
830.00 1485.3516 1031.1203 34.5485 5.3367
840.00 1485.2922 1031.1738 34.5483 5.2809
850.00 1485.2329 1031.2273 34.5482 5.2251
860.00 1485.1736 1031.2808 34.5480 5.1693
870.00 1485.1143 1031.3343 34.5478 5.1135
880.00 1485.0550 1031.3878 34.5476 5.0577
890.00 1484.9957 1031.4413 34.5475 5.0019
900.00 1484.9363 1031.4948 34.5473 4.9461
910.00 1484.8779 1031.5483 34.5471 4.8905
920.00 1484.8527 1031.6010 34.5475 4.8434
930.00 1484.8275 1031.6537 34.5479 4.7963
940.00 1484.8023 1031.7063 34.5483 4.7492
950.00 1484.7771 1031.7590 34.5487 4.7021
960.00 1484.7519 1031.8116 34.5491 4.6550
970.00 1484.7266 1031.8643 34.5495 4.6079
980.00 1484.7014 1031.9170 34.5499 4.5608
990.00 1484.6762 1031.9696 34.5503 4.5137
1000.00 1484.6510 1032.0223 34.5507 4.4666
1010.00 1484.6335 1032.0748 34.5512 4.4214
1020.00 1484.6352 1032.1267 34.5520 4.3811
1030.00 1484.6370 1032.1787 34.5528 4.3408
1040.00 1484.6388 1032.2307 34.5536 4.3005
1050.00 1484.6406 1032.2827 34.5544 4.2601
1060.00 1484.6423 1032.3347 34.5551 4.2198
1070.00 1484.6441 1032.3867 34.5559 4.1795
1080.00 1484.6459 1032.4387 34.5567 4.1392
1090.00 1484.6476 1032.4906 34.5575 4.0988
1100.00 1484.6494 1032.5426 34.5582 4.0585
1110.00 1484.6599 1032.5944 34.5591 4.0203
1120.00 1484.6830 1032.6458 34.5601 3.9853
1130.00 1484.7061 1032.6972 34.5611 3.9502
1140.00 1484.7291 1032.7487 34.5621 3.9152
1150.00 1484.7522 1032.8001 34.5632 3.8801
1160.00 1484.7753 1032.8515 34.5642 3.8451
1170.00 1484.7983 1032.9030 34.5652 3.8100
1180.00 1484.8214 1032.9544 34.5662 3.7750
1190.00 1484.8445 1033.0058 34.5672 3.7399
1200.00 1484.8675 1033.0573 34.5682 3.7049
1210.00 1484.8983 1033.1085 34.5693 3.6717
1220.00 1484.9385 1033.1594 34.5704 3.6408
1230.00 1484.9787 1033.2104 34.5715 3.6100
1240.00 1485.0190 1033.2613 34.5727 3.5791
1250.00 1485.0592 1033.3122 34.5738 3.5483
1260.00 1485.0994 1033.3632 34.5749 3.5174
1270.00 1485.1396 1033.4141 34.5760 3.4866
1280.00 1485.1799 1033.4651 34.5772 3.4557
1290.00 1485.2201 1033.5160 34.5783 3.4249
1300.00 1485.2603 1033.5670 34.5794 3.3940
1310.00 1485.3062 1033.6177 34.5806 3.3645
1320.00 1485.3614 1033.6682 34.5817 3.3373
1330.00 1485.4165 1033.7187 34.5829 3.3101
1340.00 1485.4717 1033.7691 34.5841 3.2828
1350.00 1485.5268 1033.8196 34.5852 3.2556
1360.00 1485.5820 1033.8701 34.5864 3.2284
1370.00 1485.6371 1033.9206 34.5875 3.2011
1380.00 1485.6923 1033.9710 34.5887 3.1739
1390.00 1485.7475 1034.0215 34.5899 3.1466
1400.00 1485.8026 1034.0720 34.5910 3.1194
1410.00 1485.8590 1034.1224 34.5922 3.0925
1420.00 1485.9286 1034.1724 34.5933 3.0687
1430.00 1485.9983 1034.2223 34.5944 3.0449
1440.00 1486.0680 1034.2723 34.5955 3.0211
1450.00 1486.1376 1034.3223 34.5967 2.9973
1460.00 1486.2073 1034.3722 34.5978 2.9736
1470.00 1486.2769 1034.4222 34.5989 2.9498
1480.00 1486.3466 1034.4721 34.6000 2.9260
1490.00 1486.4162 1034.5221 34.6011 2.9022
1500.00 1486.4859 1034.5721 34.6022 2.8785
1510.00 1486.5555 1034.6220 34.6034 2.8547
1520.00 1486.6295 1034.6718 34.6044 2.8319
1530.00 1486.7141 1034.7212 34.6054 2.8117
1540.00 1486.7987 1034.7706 34.6064 2.7914
1550.00 1486.8833 1034.8200 34.6075 2.7711
1560.00 1486.9679 1034.8693 34.6085 2.7509
1570.00 1487.0525 1034.9187 34.6095 2.7306
1580.00 1487.1371 1034.9681 34.6105 2.7104
1590.00 1487.2217 1035.0175 34.6115 2.6901
1600.00 1487.3063 1035.0669 34.6125 2.6699
1610.00 1487.3909 1035.1162 34.6135 2.6496
1620.00 1487.4755 1035.1656 34.6145 2.6293
1630.00 1487.5601 1035.2150 34.6155 2.6091
1640.00 1487.6535 1035.2640 34.6164 2.5908
1650.00 1487.7531 1035.3128 34.6173 2.5741
1660.00 1487.8527 1035.3616 34.6181 2.5573
1670.00 1487.9523 1035.4104 34.6190 2.5405
1680.00 1488.0520 1035.4591 34.6198 2.5237
1690.00 1488.1516 1035.5079 34.6207 2.5069
1700.00 1488.2512 1035.5567 34.6215 2.4901
1710.00 1488.3508 1035.6055 34.6224 2.4733
1720.00 1488.4504 1035.6543 34.6233 2.4566
1730.00 1488.5500 1035.7031 34.6241 2.4398
1740.00 1488.6497 1035.7518 34.6250 2.4230
1750.00 1488.7493 1035.8006 34.6258 2.4062
1760.00 1488.8489 1035.8494 34.6267 2.3894
1770.00 1488.9553 1035.8979 34.6275 2.3742
1780.00 1489.0689 1035.9461 34.6282 2.3606
1790.00 1489.1825 1035.9943 34.6289 2.3469
1800.00 1489.2960 1036.0425 34.6295 2.3333
1810.00 1489.4096 1036.0907 34.6302 2.3197
1820.00 1489.5232 1036.1389 34.6309 2.3061
1830.00 1489.6368 1036.1871 34.6316 2.2925
1840.00 1489.7504 1036.2353 34.6323 2.2789
1850.00 1489.8639 1036.2835 34.6330 2.2653
1860.00 1489.9775 1036.3318 34.6337 2.2517
1870.00 1490.0911 1036.3800 34.6344 2.2380
1880.00 1490.2047 1036.4282 34.6351 2.2244
1890.00 1490.3183 1036.4764 34.6358 2.2108
1900.00 1490.4319 1036.5246 34.6365 2.1972
1910.00 1490.5454 1036.5728 34.6372 2.1836
1920.00 1490.6661 1036.6207 34.6378 2.1716
1930.00 1490.7919 1036.6684 34.6384 2.1607
1940.00 1490.9176 1036.7160 34.6390 2.1497
1950.00 1491.0434 1036.7637 34.6395 2.1388
1960.00 1491.1691 1036.8114 34.6401 2.1279
1970.00 1491.2949 1036.8591 34.6406 2.1170
1980.00 1491.4206 1036.9068 34.6412 2.1061
1990.00 1491.5464 1036.9544 34.6418 2.0952
2000.00 1491.6721 1037.0021 34.6423 2.0843
2010.00 1491.7979 1037.0498 34.6429 2.0734
2020.00 1491.9236 1037.0975 34.6434 2.0625
2030.00 1492.0494 1037.1452 34.6440 2.0515
2040.00 1492.1751 1037.1929 34.6445 2.0406
2050.00 1492.3009 1037.2405 34.6451 2.0297
2060.00 1492.4266 1037.2882 34.6457 2.0188
2070.00 1492.5523 1037.3359 34.6462 2.0079
2080.00 1492.6781 1037.3836 34.6468 1.9970
2090.00 1492.8099 1037.4310 34.6473 1.9874
2100.00 1492.9459 1037.4782 34.6477 1.9787
2110.00 1493.0819 1037.5254 34.6481 1.9700
2120.00 1493.2179 1037.5727 34.6486 1.9613
2130.00 1493.3539 1037.6199 34.6490 1.9526
2140.00 1493.4898 1037.6671 34.6495 1.9439
2150.00 1493.6258 1037.7143 34.6499 1.9351
2160.00 1493.7618 1037.7615 34.6503 1.9264
2170.00 1493.8978 1037.8087 34.6508 1.9177
2180.00 1494.0337 1037.8560 34.6512 1.9090
2190.00 1494.1697 1037.9032 34.6517 1.9003
2200.00 1494.3057 1037.9504 34.6521 1.8916
2210.00 1494.4417 1037.9976 34.6526 1.8829
2220.00 1494.5777 1038.0448 34.6530 1.8742
2230.00 1494.7136 1038.0921 34.6534 1.8655
2240.00 1494.8496 1038.1393 34.6539 1.8568
2250.00 1494.9856 1038.1865 34.6543 1.8481
2260.00 1495.1216 1038.2337 34.6548 1.8394
2270.00 1495.2575 1038.2809 34.6552 1.8307
2280.00 1495.3967 1038.3280 34.6556 1.8226
2290.00 1495.5411 1038.3748 34.6560 1.8157
2300.00 1495.6856 1038.4216 34.6563 1.8087
2310.00 1495.8300 1038.4684 34.6567 1.8018
2320.00 1495.9744 1038.5152 34.6570 1.7948
2330.00 1496.1188 1038.5621 34.6574 1.7879
2340.00 1496.2632 1038.6089 34.6577 1.7809
2350.00 1496.4077 1038.6557 34.6581 1.7739
2360.00 1496.5521 1038.7025 34.6584 1.7670
2370.00 1496.6965 1038.7493 34.6587 1.7600
2380.00 1496.8409 1038.7961 34.6591 1.7531
2390.00 1496.9854 1038.8429 34.6594 1.7461
2400.00 1497.1298 1038.8897 34.6598 1.7392
2410.00 1497.2742 1038.9365 34.6601 1.7322
2420.00 1497.4186 1038.9833 34.6605 1.7253
2430.00 1497.5631 1039.0301 34.6608 1.7183
2440.00 1497.7075 1039.0769 34.6612 1.7114
2450.00 1497.8519 1039.1238 34.6615 1.7044
2460.00 1497.9963 1039.1706 34.6619 1.6974
2470.00 1498.1407 1039.2174 34.6622 1.6905
2480.00 1498.2852 1039.2642 34.6626 1.6835
2490.00 1498.4296 1039.3110 34.6629 1.6766
2500.00 1498.5801 1039.3575 34.6632 1.6708
2510.00 1498.7315 1039.4039 34.6635 1.6652
2520.00 1498.8828 1039.4504 34.6638 1.6597
2530.00 1499.0342 1039.4968 34.6641 1.6541
2540.00 1499.1855 1039.5432 34.6644 1.6485
2550.00 1499.3369 1039.5897 34.6646 1.6429
2560.00 1499.4883 1039.6361 34.6649 1.6373
2570.00 1499.6396 1039.6826 34.6652 1.6318
2580.00 1499.7910 1039.7290 34.6655 1.6262
2590.00 1499.9424 1039.7754 34.6658 1.6206
2600.00 1500.0937 1039.8219 34.6660 1.6150
2610.00 1500.2451 1039.8683 34.6663 1.6094
2620.00 1500.3965 1039.9148 34.6666 1.6038
2630.00 1500.5478 1039.9612 34.6669 1.5983
2640.00 1500.6992 1040.0076 34.6672 1.5927
2650.00 1500.8506 1040.0541 34.6674 1.5871
2660.00 1501.0019 1040.1005 34.6677 1.5815
2670.00 1501.1533 1040.1470 34.6680 1.5759
2680.00 1501.3047 1040.1934 34.6683 1.5703
2690.00 1501.4560 1040.2398 34.6686 1.5648
2700.00 1501.6074 1040.2863 34.6688 1.5592
2710.00 1501.7587 1040.3327 34.6691 1.5536
2720.00 1501.9101 1040.3792 34.6694 1.5480
2730.00 1502.0619 1040.4256 34.6697 1.5425
2740.00 1502.2187 1040.4717 34.6699 1.5379
2750.00 1502.3755 1040.5178 34.6701 1.5333
2760.00 1502.5323 1040.5639 34.6704 1.5287
2770.00 1502.6891 1040.6100 34.6706 1.5242
2780.00 1502.8459 1040.6561 34.6708 1.5196
2790.00 1503.0027 1040.7023 34.6711 1.5150
2800.00 1503.1595 1040.7484 34.6713 1.5104
2810.00 1503.3163 1040.7945 34.6715 1.5058
2820.00 1503.4731 1040.8406 34.6718 1.5012
2830.00 1503.6299 1040.8867 34.6720 1.4967
2840.00 1503.7868 1040.9328 34.6722 1.4921
2850.00 1503.9436 1040.9789 34.6725 1.4875
2860.00 1504.1004 1041.0250 34.6727 1.4829
2870.00 1504.2572 1041.0712 34.6729 1.4783
2880.00 1504.4140 1041.1173 34.6732 1.4737
2890.00 1504.5708 1041.1634 34.6734 1.4692
2900.00 1504.7276 1041.2095 34.6736 1.4646
2910.00 1504.8844 1041.2556 34.6739 1.4600
2920.00 1505.0412 1041.3017 34.6741 1.4554
2930.00 1505.1980 1041.3478 34.6743 1.4508
2940.00 1505.3548 1041.3940 34.6746 1.4462
2950.00 1505.5116 1041.4401 34.6748 1.4417
2960.00 1505.6684 1041.4862 34.6750 1.4371
2970.00 1505.8252 1041.5323 34.6753 1.4325
2980.00 1505.9820 1041.5784 34.6755 1.4279
2990.00 1506.1388 1041.6245 34.6757 1.4233
3000.00 1506.2996 1041.6704 34.6759 1.4194
3010.00 1506.4605 1041.7162 34.6761 1.4155
3020.00 1506.6214 1041.7620 34.6763 1.4115
3030.00 1506.7823 1041.8078 34.6766 1.4076
3040.00 1506.9432 1041.8537 34.6768 1.4037
3050.00 1507.1041 1041.8995 34.6770 1.3998
3060.00 1507.2650 1041.9453 34.6772 1.3959
3070.00 1507.4259 1041.9912 34.6774 1.3920
3080.00 1507.5868 1042.0370 34.6776 1.3880
3090.00 1507.7477 1042.0828 34.6778 1.3841
3100.00 1507.9086 1042.1286 34.6780 1.3802
3110.00 1508.0695 1042.1745 34.6782 1.3763
3120.00 1508.2304 1042.2203 34.6784 1.3724
3130.00 1508.3913 1042.2661 34.6786 1.3685
3140.00 1508.5522 1042.3119 34.6788 1.3645
3150.00 1508.7131 1042.3578 34.6790 1.3606
3160.00 1508.8740 1042.4036 34.6792 1.3567
3170.00 1509.0349 1042.4494 34.6794 1.3528
3180.00 1509.1958 1042.4953 34.6796 1.3489
3190.00 1509.3567 1042.5411 34.6798 1.3450
3200.00 1509.5176 1042.5869 34.6801 1.3410
3210.00 1509.6785 1042.6327 34.6803 1.3371
3220.00 1509.8394 1042.6786 34.6805 1.3332
3230.00 1510.0003 1042.7244 34.6807 1.3293
3240.00 1510.1612 1042.7702 34.6809 1.3254
3250.00 1510.3221 1042.8161 34.6811 1.3215
3260.00 1510.4830 1042.8619 34.6813 1.3175
3270.00 1510.6439 1042.9077 34.6815 1.3136
3280.00 1510.8062 1042.9534 34.6817 1.3099
3290.00 1510.9696 1042.9990 34.6819 1.3062
3300.00 1511.1329 1043.0446 34.6821 1.3026
3310.00 1511.2963 1043.0902 34.6823 1.2989
3320.00 1511.4596 1043.1358 34.6825 1.2953
3330.00 1511.6230 1043.1814 34.6827 1.2917
3340.00 1511.7863 1043.2270 34.6829 1.2880
3350.00 1511.9497 1043.2726 34.6831 1.2844
3360.00 1512.1130 1043.3182 34.6833 1.2807
3370.00 1512.2764 1043.3638 34.6835 1.2771
3380.00 1512.4397 1043.4094 34.6837 1.2734
3390.00 1512.6031 1043.4550 34.6839 1.2698
3400.00 1512.7664 1043.5006 34.6841 1.2662
3410.00 1512.9298 1043.5462 34.6843 1.2625
3420.00 1513.0931 1043.5918 34.6845 1.2589
3430.00 1513.2565 1043.6374 34.6847 1.2552
3440.00 1513.4198 1043.6830 34.6849 1.2516
3450.00 1513.5832 1043.7286 34.6851 1.2479
3460.00 1513.7465 1043.7742 34.6853 1.2443
3470.00 1513.9099 1043.8198 34.6855 1.2407
3480.00 1514.0732 1043.8654 34.6857 1.2370
3490.00 1514.2366 1043.9110 34.6859 1.2334
3500.00 1514.3999 1043.9566 34.6862 1.2297
3510.00 1514.5633 1044.0021 34.6864 1.2261
3520.00 1514.7266 1044.0477 34.6866 1.2225
3530.00 1514.8900 1044.0933 34.6868 1.2188
3540.00 1515.0533 1044.1389 34.6870 1.2152
3550.00 1515.2167 1044.1845 34.6872 1.2115
3560.00 1515.3800 1044.2301 34.6874 1.2079
3570.00 1515.5434 1044.2757 34.6876 1.2042
3580.00 1515.7068 1044.3213 34.6878 1.2006
3590.00 1515.8722 1044.3667 34.6880 1.1972
3600.00 1516.0380 1044.4121 34.6882 1.1938
3610.00 1516.2038 1044.4574 34.6884 1.1904
3620.00 1516.3696 1044.5028 34.6886 1.1870
3630.00 1516.5354 1044.5481 34.6888 1.1836
3640.00 1516.7012 1044.5935 34.6890 1.1802
3650.00 1516.8669 1044.6388 34.6892 1.1768
3660.00 1517.0327 1044.6842 34.6894 1.1735
3670.00 1517.1985 1044.7295 34.6896 1.1701
3680.00 1517.3643 1044.7749 34.6898 1.1667
3690.00 1517.5301 1044.8202 34.6900 1.1633
3700.00 1517.6959 1044.8656 34.6902 1.1599
3710.00 1517.8616 1044.9110 34.6904 1.1565
3720.00 1518.0274 1044.9563 34.6906 1.1531
3730.00 1518.1932 1045.0017 34.6908 1.1497
3740.00 1518.3590 1045.0470 34.6910 1.1463
3750.00 1518.5248 1045.0924 34.6912 1.1430
3760.00 1518.6906 1045.1377 34.6914 1.1396
3770.00 1518.8563 1045.1831 34.6916 1.1362
3780.00 1519.0221 1045.2284 34.6918 1.1328
3790.00 1519.1879 1045.2738 34.6920 1.1294
3800.00 1519.3537 1045.3191 34.6922 1.1260
3810.00 1519.5195 1045.3645 34.6924 1.1226
3820.00 1519.6853 1045.4098 34.6926 1.1192
3830.00 1519.8511 1045.4552 34.6928 1.1158
3840.00 1520.0168 1045.5005 34.6930 1.1125
3850.00 1520.1826 1045.5459 34.6932 1.1091
3860.00 1520.3484 1045.5912 34.6934 1.1057
3870.00 1520.5142 1045.6366 34.6936 1.1023
3880.00 1520.6800 1045.6820 34.6938 1.0989
3890.00 1520.8458 1045.7273 34.6940 1.0955
3900.00 1521.0115 1045.7727 34.6942 1.0921
3910.00 1521.1773 1045.8180 34.6944 1.0887
3920.00 1521.3434 1045.8632 34.6946 1.0851
3930.00 1521.5096 1045.9084 34.6948 1.0815
3940.00 1521.6757 1045.9536 34.6950 1.0779
3950.00 1521.8418 1045.9988 34.6953 1.0743
3960.00 1522.0080 1046.0440 34.6955 1.0707
3970.00 1522.1741 1046.0892 34.6957 1.0670
3980.00 1522.3402 1046.1344 34.6959 1.0634
3990.00 1522.5064 1046.1796 34.6962 1.0598
4000.00 1522.6725 1046.2248 34.6964 1.0562
4010.00 1522.8386 1046.2700 34.6966 1.0526
4020.00 1523.0048 1046.3152 34.6968 1.0489
4030.00 1523.1709 1046.3604 34.6971 1.0453
4040.00 1523.3370 1046.4056 34.6973 1.0417
4050.00 1523.5032 1046.4508 34.6975 1.0381
4060.00 1523.6693 1046.4960 34.6977 1.0344
4070.00 1523.8354 1046.5412 34.6980 1.0308
4080.00 1524.0016 1046.5864 34.6982 1.0272
4090.00 1524.1677 1046.6316 34.6984 1.0236
4100.00 1524.3339 1046.6768 34.6986 1.0200
4110.00 1524.5000 1046.7219 34.6989 1.0163
4120.00 1524.6661 1046.7671 34.6991 1.0127
4130.00 1524.8323 1046.8123 34.6993 1.0091
4140.00 1524.9984 1046.8575 34.6996 1.0055
4150.00 1525.1645 1046.9027 34.6998 1.0019
4160.00 1525.3307 1046.9479 34.7000 0.9982
4170.00 1525.4968 1046.9931 34.7002 0.9946
4180.00 1525.6629 1047.0383 34.7005 0.9910
4190.00 1525.8291 1047.0835 34.7007 0.9874
4200.00 1525.9952 1047.1287 34.7009 0.9838
4210.00 1526.1613 1047.1739 34.7011 0.9801
4220.00 1526.3275 1047.2191 34.7014 0.9765
4230.00 1526.4936 1047.2643 34.7016 0.9729
4240.00 1526.6597 1047.3095 34.7018 0.9693
4250.00 1526.8259 1047.3547 34.7020 0.9656
4260.00 1526.9920 1047.3999 34.7023 0.9620
4270.00 1527.1588 1047.4450 34.7025 0.9584
4280.00 1527.3261 1047.4899 34.7027 0.9547
4290.00 1527.4934 1047.5349 34.7029 0.9510
4300.00 1527.6606 1047.5799 34.7031 0.9473
4310.00 1527.8279 1047.6249 34.7034 0.9437
4320.00 1527.9952 1047.6698 34.7036 0.9400
4330.00 1528.1625 1047.7148 34.7038 0.9363
4340.00 1528.3298 1047.7598 34.7040 0.9326
4350.00 1528.4971 1047.8048 34.7042 0.9289
4360.00 1528.6643 1047.8497 34.7045 0.9253
4370.00 1528.8316 1047.8947 34.7047 0.9216
4380.00 1528.9989 1047.9397 34.7049 0.9179
4390.00 1529.1662 1047.9847 34.7051 0.9142
4400.00 1529.3335 1048.0296 34.7054 0.9105
4410.00 1529.5007 1048.0746 34.7056 0.9069
4420.00 1529.6680 1048.1196 34.7058 0.9032
4430.00 1529.8353 1048.1646 34.7060 0.8995
4440.00 1530.0026 1048.2095 34.7062 0.8958
4450.00 1530.1699 1048.2545 34.7065 0.8922
4460.00 1530.3371 1048.2995 34.7067 0.8885
4470.00 1530.5044 1048.3445 34.7069 0.8848
4480.00 1530.6717 1048.3894 34.7071 0.8811
4490.00 1530.8390 1048.4344 34.7073 0.8774
4500.00 1531.0063 1048.4794 34.7076 0.8738
4510.00 1531.1735 1048.5244 34.7078 0.8701
4520.00 1531.3408 1048.5693 34.7080 0.8664
4530.00 1531.5081 1048.6143 34.7082 0.8627
4540.00 1531.6754 1048.6593 34.7084 0.8590
4550.00 1531.8427 1048.7043 34.7087 0.8554
4560.00 1532.0099 1048.7492 34.7089 0.8517
4570.00 1532.1772 1048.7942 34.7091 0.8480
4580.00 1532.3445 1048.8392 34.7093 0.8443
4590.00 1532.5118 1048.8842 34.7096 0.8406
4600.00 1532.6791 1048.9291 34.7098 0.8370
