# Averages over distance (i) for each depth (k):
# Depth(m) Speed(m/s) Density(kg/m^3) Salt PSU Theta(degC)
0.00 1527.0768 1024.6452 35.5029 21.8511
10.00 1527.1551 1024.7000 35.5044 21.8153
20.00 1526.9915 1024.7823 35.5079 21.6865
30.00 1526.4670 1024.9038 35.5131 21.4208
40.00 1525.7927 1025.0383 35.5166 21.1016
50.00 1525.0908 1025.1723 35.5183 20.7759
60.00 1524.4053 1025.3020 35.5188 20.4597
70.00 1523.7396 1025.4273 35.5181 20.1540
80.00 1523.0887 1025.5486 35.5162 19.8569
90.00 1522.4616 1025.6653 35.5129 19.5713
100.00 1521.8767 1025.7756 35.5083 19.3037
110.00 1521.3598 1025.8776 35.5025 19.0625
120.00 1520.9239 1025.9710 35.4962 18.8516
130.00 1520.5502 1026.0579 35.4894 18.6639
140.00 1520.2048 1026.1413 35.4821 18.4872
150.00 1519.8521 1026.2234 35.4732 18.3097
160.00 1519.4833 1026.3053 35.4631 18.1281
170.00 1519.1015 1026.3871 35.4519 17.9432
180.00 1518.6883 1026.4687 35.4383 17.7501
190.00 1518.2652 1026.5503 35.4240 17.5544
200.00 1517.8033 1026.6322 35.4074 17.3482
210.00 1517.3063 1026.7144 35.3887 17.1324
220.00 1516.8094 1026.7967 35.3701 16.9166
230.00 1516.1984 1026.8818 35.3463 16.6688
240.00 1515.5450 1026.9679 35.3208 16.4090
250.00 1514.8916 1027.0540 35.2952 16.1492
260.00 1514.1754 1027.1416 35.2673 15.8723
270.00 1513.2737 1027.2336 35.2328 15.5451
280.00 1512.3719 1027.3256 35.1982 15.2179
290.00 1511.4701 1027.4176 35.1636 14.8908
300.00 1510.5669 1027.5096 35.1290 14.5633
310.00 1509.4650 1027.6024 35.0891 14.1915
320.00 1508.3631 1027.6951 35.0491 13.8197
330.00 1507.2611 1027.7878 35.0092 13.4480
340.00 1506.1592 1027.8805 34.9692 13.0762
350.00 1505.0573 1027.9732 34.9292 12.7044
360.00 1503.9992 1028.0572 34.8931 12.3615
370.00 1502.9442 1028.1406 34.8573 12.0207
380.00 1501.8893 1028.2241 34.8215 11.6800
390.00 1500.8344 1028.3075 34.7856 11.3392
400.00 1499.7794 1028.3909 34.7498 10.9984
410.00 1498.7264 1028.4742 34.7140 10.6582
420.00 1497.9401 1028.5448 34.6888 10.4040
430.00 1497.1539 1028.6154 34.6636 10.1498
440.00 1496.3677 1028.6860 34.6384 9.8956
450.00 1495.5814 1028.7566 34.6132 9.6414
460.00 1494.7952 1028.8273 34.5880 9.3872
470.00 1494.0089 1028.8979 34.5627 9.1330
480.00 1493.2993 1028.9661 34.5401 8.9007
490.00 1492.8160 1029.0273 34.5252 8.7329
500.00 1492.3326 1029.0885 34.5102 8.5652
510.00 1491.8493 1029.1497 34.4953 8.3974
520.00 1491.3659 1029.2110 34.4804 8.2296
530.00 1490.8826 1029.2722 34.4654 8.0619
540.00 1490.3993 1029.3334 34.4505 7.8941
550.00 1489.9159 1029.3946 34.4355 7.7263
560.00 1489.5956 1029.4520 34.4257 7.6023
570.00 1489.3360 1029.5081 34.4178 7.4944
580.00 1489.0764 1029.5642 34.4099 7.3866
590.00 1488.8167 1029.6202 34.4019 7.2788
600.00 1488.5571 1029.6763 34.3940 7.1709
610.00 1488.2974 1029.7323 34.3861 7.0631
620.00 1488.0378 1029.7884 34.3782 6.9553
630.00 1487.7781 1029.8445 34.3702 6.8474
640.00 1487.5827 1029.8994 34.3645 6.7562
650.00 1487.4450 1029.9534 34.3606 6.6800
660.00 1487.3073 1030.0075 34.3567 6.6038
670.00 1487.1696 1030.0615 34.3528 6.5275
680.00 1487.0319 1030.1155 34.3490 6.4513
690.00 1486.8943 1030.1695 34.3451 6.3751
700.00 1486.7566 1030.2235 34.3412 6.2989
710.00 1486.6189 1030.2775 34.3374 6.2226
720.00 1486.4812 1030.3315 34.3335 6.1464
730.00 1486.3795 1030.3855 34.3315 6.0794
740.00 1486.2892 1030.4394 34.3301 6.0154
750.00 1486.1989 1030.4934 34.3287 5.9513
760.00 1486.1085 1030.5473 34.3273 5.8873
770.00 1486.0182 1030.6012 34.3258 5.8232
780.00 1485.9279 1030.6552 34.3244 5.7591
790.00 1485.8376 1030.7091 34.3230 5.6951
800.00 1485.7472 1030.7630 34.3216 5.6310
810.00 1485.6569 1030.8170 34.3202 5.5670
820.00 1485.5774 1030.8712 34.3198 5.5057
830.00 1485.5067 1030.9258 34.3203 5.4467
840.00 1485.4360 1030.9803 34.3208 5.3878
850.00 1485.3652 1031.0348 34.3213 5.3288
860.00 1485.2945 1031.0894 34.3218 5.2698
870.00 1485.2238 1031.1439 34.3223 5.2108
880.00 1485.1530 1031.1985 34.3227 5.1518
890.00 1485.0823 1031.2530 34.3232 5.0929
900.00 1485.0116 1031.3075 34.3237 5.0339
910.00 1484.9413 1031.3621 34.3242 4.9750
920.00 1484.8868 1031.4171 34.3263 4.9202
930.00 1484.8323 1031.4722 34.3284 4.8654
940.00 1484.7778 1031.5273 34.3304 4.8107
950.00 1484.7234 1031.5823 34.3325 4.7559
960.00 1484.6689 1031.6374 34.3345 4.7011
970.00 1484.6144 1031.6925 34.3366 4.6463
980.00 1484.5599 1031.7475 34.3387 4.5915
990.00 1484.5054 1031.8026 34.3407 4.5367
1000.00 1484.4510 1031.8577 34.3428 4.4819
1010.00 1484.4018 1031.9128 34.3452 4.4285
1020.00 1484.3662 1031.9681 34.3485 4.3784
1030.00 1484.3306 1032.0234 34.3518 4.3284
1040.00 1484.2949 1032.0787 34.3551 4.2784
1050.00 1484.2593 1032.1340 34.3584 4.2283
1060.00 1484.2237 1032.1893 34.3617 4.1783
1070.00 1484.1880 1032.2446 34.3650 4.1282
1080.00 1484.1524 1032.2999 34.3683 4.0782
1090.00 1484.1167 1032.3552 34.3716 4.0282
1100.00 1484.0811 1032.4105 34.3750 3.9781
1110.00 1484.0550 1032.4658 34.3786 3.9304
1120.00 1484.0426 1032.5210 34.3828 3.8861
1130.00 1484.0302 1032.5761 34.3870 3.8418
1140.00 1484.0178 1032.6313 34.3912 3.7975
1150.00 1484.0054 1032.6864 34.3953 3.7532
1160.00 1483.9930 1032.7416 34.3995 3.7088
1170.00 1483.9806 1032.7968 34.4037 3.6645
1180.00 1483.9682 1032.8519 34.4079 3.6202
1190.00 1483.9559 1032.9071 34.4121 3.5759
1200.00 1483.9435 1032.9623 34.4163 3.5316
1210.00 1483.9438 1033.0171 34.4206 3.4904
1220.00 1483.9601 1033.0716 34.4251 3.4530
1230.00 1483.9763 1033.1261 34.4297 3.4156
1240.00 1483.9925 1033.1806 34.4342 3.3782
1250.00 1484.0087 1033.2351 34.4387 3.3408
1260.00 1484.0249 1033.2896 34.4432 3.3035
1270.00 1484.0411 1033.3441 34.4478 3.2661
1280.00 1484.0573 1033.3986 34.4523 3.2287
1290.00 1484.0736 1033.4531 34.4568 3.1913
1300.00 1484.0898 1033.5076 34.4614 3.1540
1310.00 1484.1182 1033.5616 34.4658 3.1195
1320.00 1484.1665 1033.6149 34.4701 3.0899
1330.00 1484.2149 1033.6682 34.4744 3.0602
1340.00 1484.2632 1033.7214 34.4786 3.0306
1350.00 1484.3115 1033.7747 34.4829 3.0009
1360.00 1484.3599 1033.8280 34.4872 2.9713
1370.00 1484.4082 1033.8813 34.4915 2.9417
1380.00 1484.4566 1033.9346 34.4957 2.9120
1390.00 1484.5049 1033.9879 34.5000 2.8824
1400.00 1484.5532 1034.0411 34.5043 2.8527
1410.00 1484.6042 1034.0943 34.5085 2.8237
1420.00 1484.6834 1034.1461 34.5121 2.8015
1430.00 1484.7627 1034.1978 34.5157 2.7793
1440.00 1484.8419 1034.2496 34.5192 2.7570
1450.00 1484.9212 1034.3014 34.5228 2.7348
1460.00 1485.0004 1034.3531 34.5264 2.7126
1470.00 1485.0797 1034.4049 34.5299 2.6904
1480.00 1485.1589 1034.4567 34.5335 2.6681
1490.00 1485.2381 1034.5084 34.5371 2.6459
1500.00 1485.3174 1034.5602 34.5407 2.6237
1510.00 1485.3966 1034.6120 34.5442 2.6015
1520.00 1485.4832 1034.6633 34.5475 2.5810
1530.00 1485.5878 1034.7136 34.5503 2.5648
1540.00 1485.6923 1034.7638 34.5530 2.5487
1550.00 1485.7969 1034.8141 34.5557 2.5325
1560.00 1485.9014 1034.8644 34.5584 2.5164
1570.00 1486.0059 1034.9147 34.5611 2.5002
1580.00 1486.1105 1034.9649 34.5638 2.4840
1590.00 1486.2150 1035.0152 34.5665 2.4679
1600.00 1486.3196 1035.0655 34.5692 2.4517
1610.00 1486.4241 1035.1158 34.5719 2.4355
1620.00 1486.5287 1035.1660 34.5746 2.4194
1630.00 1486.6332 1035.2163 34.5773 2.4032
1640.00 1486.7484 1035.2659 34.5796 2.3896
1650.00 1486.8712 1035.3149 34.5815 2.3777
1660.00 1486.9940 1035.3640 34.5834 2.3659
1670.00 1487.1168 1035.4131 34.5853 2.3541
1680.00 1487.2395 1035.4621 34.5872 2.3423
1690.00 1487.3623 1035.5112 34.5891 2.3304
1700.00 1487.4851 1035.5602 34.5911 2.3186
1710.00 1487.6079 1035.6093 34.5930 2.3068
1720.00 1487.7307 1035.6584 34.5949 2.2950
1730.00 1487.8535 1035.7074 34.5968 2.2831
1740.00 1487.9763 1035.7565 34.5987 2.2713
1750.00 1488.0991 1035.8056 34.6006 2.2595
1760.00 1488.2219 1035.8546 34.6026 2.2476
1770.00 1488.3504 1035.9032 34.6042 2.2372
1780.00 1488.4851 1035.9514 34.6055 2.2281
1790.00 1488.6197 1035.9996 34.6068 2.2191
1800.00 1488.7543 1036.0477 34.6081 2.2100
1810.00 1488.8889 1036.0959 34.6094 2.2010
1820.00 1489.0236 1036.1441 34.6107 2.1919
1830.00 1489.1582 1036.1922 34.6120 2.1828
1840.00 1489.2928 1036.2404 34.6133 2.1738
1850.00 1489.4275 1036.2886 34.6146 2.1647
1860.00 1489.5621 1036.3367 34.6159 2.1557
1870.00 1489.6967 1036.3849 34.6173 2.1466
1880.00 1489.8314 1036.4331 34.6186 2.1376
1890.00 1489.9660 1036.4812 34.6199 2.1285
1900.00 1490.1006 1036.5294 34.6212 2.1195
1910.00 1490.2352 1036.5776 34.6225 2.1104
1920.00 1490.3741 1036.6254 34.6236 2.1023
1930.00 1490.5160 1036.6729 34.6244 2.0949
1940.00 1490.6579 1036.7205 34.6253 2.0875
1950.00 1490.7998 1036.7680 34.6262 2.0801
1960.00 1490.9417 1036.8156 34.6271 2.0726
1970.00 1491.0836 1036.8631 34.6280 2.0652
1980.00 1491.2254 1036.9107 34.6289 2.0578
1990.00 1491.3673 1036.9582 34.6298 2.0504
2000.00 1491.5092 1037.0058 34.6307 2.0430
2010.00 1491.6511 1037.0533 34.6316 2.0356
2020.00 1491.7930 1037.1009 34.6325 2.0281
2030.00 1491.9349 1037.1484 34.6334 2.0207
2040.00 1492.0768 1037.1960 34.6343 2.0133
2050.00 1492.2187 1037.2435 34.6352 2.0059
2060.00 1492.3605 1037.2911 34.6361 1.9985
2070.00 1492.5024 1037.3386 34.6370 1.9911
2080.00 1492.6443 1037.3862 34.6378 1.9836
2090.00 1492.7889 1037.4335 34.6386 1.9768
2100.00 1492.9354 1037.4806 34.6392 1.9703
2110.00 1493.0819 1037.5277 34.6398 1.9639
2120.00 1493.2283 1037.5748 34.6405 1.9574
2130.00 1493.3748 1037.6219 34.6411 1.9509
2140.00 1493.5213 1037.6691 34.6417 1.9445
2150.00 1493.6677 1037.7162 34.6424 1.9380
2160.00 1493.8142 1037.7633 34.6430 1.9316
2170.00 1493.9606 1037.8104 34.6436 1.9251
2180.00 1494.1071 1037.8576 34.6443 1.9186
2190.00 1494.2536 1037.9047 34.6449 1.9122
2200.00 1494.4000 1037.9518 34.6455 1.9057
2210.00 1494.5465 1037.9989 34.6462 1.8992
2220.00 1494.6930 1038.0460 34.6468 1.8928
2230.00 1494.8394 1038.0932 34.6474 1.8863
2240.00 1494.9859 1038.1403 34.6481 1.8799
2250.00 1495.1324 1038.1874 34.6487 1.8734
2260.00 1495.2788 1038.2345 34.6493 1.8669
2270.00 1495.4253 1038.2817 34.6499 1.8605
2280.00 1495.5730 1038.3287 34.6505 1.8542
2290.00 1495.7229 1038.3755 34.6510 1.8484
2300.00 1495.8727 1038.4223 34.6515 1.8426
2310.00 1496.0226 1038.4691 34.6519 1.8367
2320.00 1496.1724 1038.5159 34.6524 1.8309
2330.00 1496.3223 1038.5627 34.6529 1.8251
2340.00 1496.4721 1038.6095 34.6534 1.8192
2350.00 1496.6220 1038.6563 34.6538 1.8134
2360.00 1496.7718 1038.7031 34.6543 1.8076
2370.00 1496.9217 1038.7499 34.6548 1.8017
2380.00 1497.0715 1038.7967 34.6553 1.7959
2390.00 1497.2213 1038.8435 34.6557 1.7901
2400.00 1497.3712 1038.8903 34.6562 1.7842
2410.00 1497.5210 1038.9371 34.6567 1.7784
2420.00 1497.6709 1038.9838 34.6572 1.7725
2430.00 1497.8207 1039.0306 34.6576 1.7667
2440.00 1497.9706 1039.0774 34.6581 1.7609
2450.00 1498.1204 1039.1242 34.6586 1.7550
2460.00 1498.2703 1039.1710 34.6591 1.7492
2470.00 1498.4201 1039.2178 34.6595 1.7434
2480.00 1498.5700 1039.2646 34.6600 1.7375
2490.00 1498.7198 1039.3114 34.6605 1.7317
2500.00 1498.8724 1039.3580 34.6609 1.7263
2510.00 1499.0254 1039.4045 34.6613 1.7210
2520.00 1499.1784 1039.4511 34.6617 1.7157
2530.00 1499.3313 1039.4976 34.6620 1.7104
2540.00 1499.4843 1039.5441 34.6624 1.7051
2550.00 1499.6373 1039.5906 34.6628 1.6998
2560.00 1499.7903 1039.6372 34.6632 1.6945
2570.00 1499.9432 1039.6837 34.6636 1.6891
2580.00 1500.0962 1039.7302 34.6639 1.6838
2590.00 1500.2492 1039.7767 34.6643 1.6785
2600.00 1500.4022 1039.8232 34.6647 1.6732
2610.00 1500.5552 1039.8698 34.6651 1.6679
2620.00 1500.7081 1039.9163 34.6655 1.6626
2630.00 1500.8611 1039.9628 34.6659 1.6573
2640.00 1501.0141 1040.0093 34.6662 1.6520
2650.00 1501.1671 1040.0559 34.6666 1.6467
2660.00 1501.3200 1040.1024 34.6670 1.6413
2670.00 1501.4730 1040.1489 34.6674 1.6360
2680.00 1501.6260 1040.1954 34.6678 1.6307
2690.00 1501.7790 1040.2420 34.6682 1.6254
2700.00 1501.9319 1040.2885 34.6685 1.6201
2710.00 1502.0849 1040.3350 34.6689 1.6148
2720.00 1502.2379 1040.3815 34.6693 1.6095
2730.00 1502.3911 1040.4280 34.6697 1.6042
2740.00 1502.5472 1040.4743 34.6700 1.5994
2750.00 1502.7033 1040.5206 34.6703 1.5945
2760.00 1502.8594 1040.5668 34.6707 1.5897
2770.00 1503.0155 1040.6131 34.6710 1.5849
2780.00 1503.1715 1040.6594 34.6713 1.5800
2790.00 1503.3276 1040.7056 34.6717 1.5752
2800.00 1503.4837 1040.7519 34.6720 1.5704
2810.00 1503.6398 1040.7982 34.6723 1.5656
2820.00 1503.7959 1040.8444 34.6727 1.5607
2830.00 1503.9520 1040.8907 34.6730 1.5559
2840.00 1504.1081 1040.9370 34.6733 1.5511
2850.00 1504.2641 1040.9832 34.6736 1.5462
2860.00 1504.4202 1041.0295 34.6740 1.5414
2870.00 1504.5763 1041.0758 34.6743 1.5366
2880.00 1504.7324 1041.1220 34.6746 1.5318
2890.00 1504.8885 1041.1683 34.6750 1.5269
2900.00 1505.0446 1041.2146 34.6753 1.5221
2910.00 1505.2007 1041.2608 34.6756 1.5173
2920.00 1505.3567 1041.3071 34.6759 1.5124
2930.00 1505.5128 1041.3534 34.6763 1.5076
2940.00 1505.6689 1041.3996 34.6766 1.5028
2950.00 1505.8250 1041.4459 34.6769 1.4980
2960.00 1505.9811 1041.4922 34.6773 1.4931
2970.00 1506.1372 1041.5384 34.6776 1.4883
2980.00 1506.2933 1041.5847 34.6779 1.4835
2990.00 1506.4493 1041.6310 34.6782 1.4786
3000.00 1506.6085 1041.6770 34.6785 1.4743
3010.00 1506.7677 1041.7230 34.6788 1.4699
3020.00 1506.9270 1041.7690 34.6791 1.4655
3030.00 1507.0862 1041.8150 34.6794 1.4612
3040.00 1507.2455 1041.8610 34.6797 1.4568
3050.00 1507.4047 1041.9070 34.6800 1.4524
3060.00 1507.5640 1041.9530 34.6803 1.4481
3070.00 1507.7232 1041.9990 34.6806 1.4437
3080.00 1507.8824 1042.0450 34.6809 1.4393
3090.00 1508.0417 1042.0910 34.6812 1.4350
3100.00 1508.2009 1042.1370 34.6815 1.4306
3110.00 1508.3602 1042.1830 34.6817 1.4262
3120.00 1508.5194 1042.2290 34.6820 1.4219
3130.00 1508.6787 1042.2750 34.6823 1.4175
3140.00 1508.8379 1042.3210 34.6826 1.4131
3150.00 1508.9971 1042.3670 34.6829 1.4088
3160.00 1509.1564 1042.4131 34.6832 1.4044
3170.00 1509.3156 1042.4591 34.6835 1.4001
3180.00 1509.4749 1042.5051 34.6838 1.3957
3190.00 1509.6341 1042.5511 34.6841 1.3913
3200.00 1509.7933 1042.5971 34.6844 1.3870
3210.00 1509.9526 1042.6431 34.6847 1.3826
3220.00 1510.1118 1042.6891 34.6850 1.3782
3230.00 1510.2711 1042.7351 34.6853 1.3739
3240.00 1510.4303 1042.7811 34.6855 1.3695
3250.00 1510.5896 1042.8271 34.6858 1.3651
3260.00 1510.7488 1042.8731 34.6861 1.3608
3270.00 1510.9080 1042.9191 34.6864 1.3564
3280.00 1511.0687 1042.9650 34.6867 1.3522
3290.00 1511.2305 1043.0107 34.6870 1.3481
3300.00 1511.3922 1043.0565 34.6872 1.3441
3310.00 1511.5540 1043.1023 34.6875 1.3400
3320.00 1511.7157 1043.1480 34.6878 1.3359
3330.00 1511.8774 1043.1938 34.6880 1.3318
3340.00 1512.0392 1043.2395 34.6883 1.3278
3350.00 1512.2009 1043.2853 34.6886 1.3237
3360.00 1512.3627 1043.3311 34.6889 1.3196
3370.00 1512.5244 1043.3768 34.6891 1.3156
3380.00 1512.6862 1043.4226 34.6894 1.3115
3390.00 1512.8479 1043.4684 34.6897 1.3074
3400.00 1513.0097 1043.5141 34.6899 1.3033
3410.00 1513.1714 1043.5599 34.6902 1.2993
3420.00 1513.3332 1043.6056 34.6905 1.2952
3430.00 1513.4949 1043.6514 34.6907 1.2911
3440.00 1513.6566 1043.6972 34.6910 1.2871
3450.00 1513.8184 1043.7429 34.6913 1.2830
3460.00 1513.9801 1043.7887 34.6915 1.2789
3470.00 1514.1419 1043.8344 34.6918 1.2748
3480.00 1514.3036 1043.8802 34.6921 1.2708
3490.00 1514.4654 1043.9260 34.6924 1.2667
3500.00 1514.6271 1043.9717 34.6926 1.2626
3510.00 1514.7889 1044.0175 34.6929 1.2585
3520.00 1514.9506 1044.0633 34.6932 1.2545
3530.00 1515.1124 1044.1090 34.6934 1.2504
3540.00 1515.2741 1044.1548 34.6937 1.2463
3550.00 1515.4358 1044.2005 34.6940 1.2423
3560.00 1515.5976 1044.2463 34.6942 1.2382
3570.00 1515.7593 1044.2921 34.6945 1.2341
3580.00 1515.9211 1044.3378 34.6948 1.2300
3590.00 1516.0842 1044.3834 34.6950 1.2260
3600.00 1516.2474 1044.4289 34.6953 1.2220
3610.00 1516.4107 1044.4745 34.6955 1.2180
3620.00 1516.5739 1044.5200 34.6958 1.2140
3630.00 1516.7372 1044.5656 34.6960 1.2099
3640.00 1516.9005 1044.6111 34.6963 1.2059
3650.00 1517.0637 1044.6567 34.6965 1.2019
3660.00 1517.2270 1044.7022 34.6968 1.1979
3670.00 1517.3903 1044.7478 34.6970 1.1939
3680.00 1517.5535 1044.7933 34.6973 1.1899
3690.00 1517.7168 1044.8388 34.6975 1.1858
3700.00 1517.8801 1044.8844 34.6978 1.1818
3710.00 1518.0433 1044.9299 34.6980 1.1778
3720.00 1518.2066 1044.9755 34.6982 1.1738
3730.00 1518.3698 1045.0210 34.6985 1.1698
3740.00 1518.5331 1045.0666 34.6987 1.1658
3750.00 1518.6964 1045.1121 34.6990 1.1617
3760.00 1518.8596 1045.1577 34.6992 1.1577
3770.00 1519.0229 1045.2032 34.6995 1.1537
3780.00 1519.1862 1045.2487 34.6997 1.1497
3790.00 1519.3494 1045.2943 34.7000 1.1457
3800.00 1519.5127 1045.3398 34.7002 1.1416
3810.00 1519.6760 1045.3854 34.7005 1.1376
3820.00 1519.8392 1045.4309 34.7007 1.1336
3830.00 1520.0025 1045.4765 34.7010 1.1296
3840.00 1520.1658 1045.5220 34.7012 1.1256
3850.00 1520.3290 1045.5676 34.7015 1.1216
3860.00 1520.4923 1045.6131 34.7017 1.1175
3870.00 1520.6555 1045.6586 34.7020 1.1135
3880.00 1520.8188 1045.7042 34.7022 1.1095
3890.00 1520.9821 1045.7497 34.7025 1.1055
3900.00 1521.1453 1045.7953 34.7027 1.1015
3910.00 1521.3086 1045.8408 34.7030 1.0975
3920.00 1521.4717 1045.8862 34.7032 1.0931
3930.00 1521.6348 1045.9316 34.7034 1.0888
3940.00 1521.7978 1045.9770 34.7036 1.0844
3950.00 1521.9609 1046.0224 34.7038 1.0801
3960.00 1522.1240 1046.0677 34.7041 1.0757
3970.00 1522.2870 1046.1131 34.7043 1.0714
3980.00 1522.4501 1046.1585 34.7045 1.0670
3990.00 1522.6132 1046.2039 34.7047 1.0626
4000.00 1522.7762 1046.2492 34.7050 1.0583
4010.00 1522.9393 1046.2946 34.7052 1.0539
4020.00 1523.1024 1046.3400 34.7054 1.0496
4030.00 1523.2654 1046.3854 34.7056 1.0452
4040.00 1523.4285 1046.4308 34.7058 1.0409
4050.00 1523.5916 1046.4761 34.7061 1.0365
4060.00 1523.7546 1046.5215 34.7063 1.0321
4070.00 1523.9177 1046.5669 34.7065 1.0278
4080.00 1524.0808 1046.6123 34.7067 1.0234
4090.00 1524.2438 1046.6576 34.7069 1.0191
4100.00 1524.4069 1046.7030 34.7072 1.0147
4110.00 1524.5700 1046.7484 34.7074 1.0104
4120.00 1524.7331 1046.7938 34.7076 1.0060
4130.00 1524.8961 1046.8392 34.7078 1.0016
4140.00 1525.0592 1046.8845 34.7080 0.9973
4150.00 1525.2223 1046.9299 34.7083 0.9929
4160.00 1525.3853 1046.9753 34.7085 0.9886
4170.00 1525.5484 1047.0207 34.7087 0.9842
4180.00 1525.7115 1047.0661 34.7089 0.9799
4190.00 1525.8745 1047.1114 34.7092 0.9755
4200.00 1526.0376 1047.1568 34.7094 0.9711
4210.00 1526.2007 1047.2022 34.7096 0.9668
4220.00 1526.3637 1047.2476 34.7098 0.9624
4230.00 1526.5268 1047.2929 34.7100 0.9581
4240.00 1526.6899 1047.3383 34.7103 0.9537
4250.00 1526.8529 1047.3837 34.7105 0.9494
4260.00 1527.0160 1047.4291 34.7107 0.9450
4270.00 1527.1811 1047.4742 34.7109 0.9409
4280.00 1527.3477 1047.5192 34.7110 0.9371
4290.00 1527.5142 1047.5643 34.7111 0.9332
4300.00 1527.6808 1047.6093 34.7113 0.9293
4310.00 1527.8474 1047.6543 34.7114 0.9254
4320.00 1528.0140 1047.6993 34.7116 0.9216
4330.00 1528.1805 1047.7443 34.7117 0.9177
4340.00 1528.3471 1047.7893 34.7118 0.9138
4350.00 1528.5137 1047.8343 34.7120 0.9100
4360.00 1528.6803 1047.8793 34.7121 0.9061
4370.00 1528.8468 1047.9243 34.7122 0.9022
4380.00 1529.0134 1047.9693 34.7124 0.8984
4390.00 1529.1800 1048.0143 34.7125 0.8945
4400.00 1529.3466 1048.0593 34.7127 0.8906
4410.00 1529.5131 1048.1043 34.7128 0.8868
4420.00 1529.6797 1048.1494 34.7129 0.8829
4430.00 1529.8463 1048.1944 34.7131 0.8790
4440.00 1530.0129 1048.2394 34.7132 0.8751
4450.00 1530.1794 1048.2844 34.7133 0.8713
4460.00 1530.3460 1048.3294 34.7135 0.8674
4470.00 1530.5126 1048.3744 34.7136 0.8635
4480.00 1530.6792 1048.4194 34.7137 0.8597
4490.00 1530.8457 1048.4644 34.7139 0.8558
4500.00 1531.0123 1048.5094 34.7140 0.8519
4510.00 1531.1789 1048.5544 34.7142 0.8481
4520.00 1531.3455 1048.5994 34.7143 0.8442
4530.00 1531.5120 1048.6444 34.7144 0.8403
4540.00 1531.6786 1048.6894 34.7146 0.8365
4550.00 1531.8452 1048.7345 34.7147 0.8326
4560.00 1532.0118 1048.7795 34.7148 0.8287
4570.00 1532.1783 1048.8245 34.7150 0.8249
4580.00 1532.3449 1048.8695 34.7151 0.8210
4590.00 1532.5115 1048.9145 34.7152 0.8171
4600.00 1532.6781 1048.9595 34.7154 0.8132
4610.00 1532.8446 1049.0045 34.7155 0.8094
4620.00 1533.0112 1049.0495 34.7157 0.8055
4630.00 1533.1778 1049.0945 34.7158 0.8016
4640.00 1533.3444 1049.1395 34.7159 0.7978
4650.00 1533.5269 1049.1836 34.7159 0.7972
4660.00 1533.7099 1049.2276 34.7159 0.7967
4670.00 1533.8929 1049.2716 34.7160 0.7962
4680.00 1534.0759 1049.3156 34.7160 0.7957
4690.00 1534.2588 1049.3597 34.7160 0.7952
4700.00 1534.4418 1049.4037 34.7160 0.7947
