# Averages over distance (i) for each depth (k):
# Depth(m) Speed(m/s) Density(kg/m^3) Salt PSU Theta(degC)
0.00 1537.2939 1024.1900 36.3539 25.5728
10.00 1537.4156 1024.2398 36.3540 25.5519
20.00 1537.4443 1024.3016 36.3538 25.4916
30.00 1537.2386 1024.3896 36.3485 25.3342
40.00 1536.8127 1024.4984 36.3351 25.0887
50.00 1536.3006 1024.6134 36.3174 24.8109
60.00 1535.7865 1024.7265 36.2987 24.5351
70.00 1535.2868 1024.8357 36.2790 24.2678
80.00 1534.8087 1024.9403 36.2584 24.0120
90.00 1534.3565 1025.0396 36.2365 23.7692
100.00 1533.9383 1025.1328 36.2135 23.5424
110.00 1533.5567 1025.2201 36.1896 23.3322
120.00 1533.1889 1025.3033 36.1637 23.1298
130.00 1532.8018 1025.3850 36.1344 22.9226
140.00 1532.3734 1025.4670 36.1009 22.7023
150.00 1531.8560 1025.5514 36.0600 22.4527
160.00 1531.2978 1025.6370 36.0166 22.1903
170.00 1530.7068 1025.7237 35.9711 21.9176
180.00 1530.0785 1025.8113 35.9244 21.6348
190.00 1529.4384 1025.8993 35.8773 21.3488
200.00 1528.7461 1025.9895 35.8289 21.0473
210.00 1528.0069 1026.0819 35.7793 20.7320
220.00 1527.2677 1026.1743 35.7298 20.4167
230.00 1526.3509 1026.2754 35.6753 20.0472
240.00 1525.3682 1026.3796 35.6191 19.6575
250.00 1524.3854 1026.4838 35.5629 19.2678
260.00 1523.3102 1026.5917 35.5049 18.8520
270.00 1521.9621 1026.7106 35.4413 18.3593
280.00 1520.6140 1026.8294 35.3777 17.8666
290.00 1519.2659 1026.9482 35.3141 17.3739
300.00 1517.9158 1027.0670 35.2506 16.8808
310.00 1516.2732 1027.1897 35.1872 16.3265
320.00 1514.6306 1027.3124 35.1239 15.7723
330.00 1512.9881 1027.4351 35.0605 15.2180
340.00 1511.3455 1027.5578 34.9972 14.6637
350.00 1509.7029 1027.6805 34.9339 14.1094
360.00 1508.1046 1027.7897 34.8830 13.6025
370.00 1506.5096 1027.8980 34.8330 13.0991
380.00 1504.9145 1028.0062 34.7830 12.5956
390.00 1503.3194 1028.1145 34.7330 12.0922
400.00 1501.7244 1028.2227 34.6830 11.5887
410.00 1500.1321 1028.3308 34.6332 11.0863
420.00 1498.9428 1028.4175 34.6035 10.7222
430.00 1497.7534 1028.5041 34.5737 10.3582
440.00 1496.5641 1028.5908 34.5440 9.9942
450.00 1495.3747 1028.6774 34.5143 9.6301
460.00 1494.1854 1028.7640 34.4846 9.2661
470.00 1492.9960 1028.8507 34.4549 8.9021
480.00 1491.9303 1028.9333 34.4295 8.5737
490.00 1491.2297 1029.0039 34.4166 8.3507
500.00 1490.5290 1029.0745 34.4037 8.1277
510.00 1489.8284 1029.1452 34.3908 7.9047
520.00 1489.1278 1029.2158 34.3779 7.6817
530.00 1488.4271 1029.2865 34.3650 7.4587
540.00 1487.7265 1029.3571 34.3521 7.2357
550.00 1487.0259 1029.4278 34.3392 7.0127
560.00 1486.5907 1029.4921 34.3336 6.8599
570.00 1486.2541 1029.5541 34.3307 6.7332
580.00 1485.9175 1029.6160 34.3279 6.6065
590.00 1485.5810 1029.6780 34.3250 6.4798
600.00 1485.2444 1029.7400 34.3221 6.3531
610.00 1484.9078 1029.8020 34.3193 6.2264
620.00 1484.5712 1029.8640 34.3164 6.0997
630.00 1484.2347 1029.9260 34.3136 5.9730
640.00 1484.0091 1029.9858 34.3134 5.8743
650.00 1483.8835 1030.0437 34.3155 5.8008
660.00 1483.7578 1030.1016 34.3177 5.7273
670.00 1483.6321 1030.1594 34.3199 5.6538
680.00 1483.5065 1030.2173 34.3221 5.5802
690.00 1483.3808 1030.2752 34.3243 5.5067
700.00 1483.2551 1030.3331 34.3265 5.4332
710.00 1483.1294 1030.3910 34.3287 5.3597
720.00 1483.0038 1030.4489 34.3309 5.2862
730.00 1482.9562 1030.5053 34.3347 5.2319
740.00 1482.9333 1030.5613 34.3390 5.1837
750.00 1482.9104 1030.6173 34.3434 5.1356
760.00 1482.8874 1030.6732 34.3477 5.0874
770.00 1482.8645 1030.7292 34.3520 5.0392
780.00 1482.8416 1030.7852 34.3564 4.9910
790.00 1482.8187 1030.8412 34.3607 4.9428
800.00 1482.7958 1030.8971 34.3650 4.8946
810.00 1482.7729 1030.9531 34.3694 4.8465
820.00 1482.7703 1031.0086 34.3740 4.8033
830.00 1482.7842 1031.0637 34.3789 4.7643
840.00 1482.7980 1031.1188 34.3837 4.7253
850.00 1482.8119 1031.1740 34.3886 4.6863
860.00 1482.8258 1031.2291 34.3934 4.6472
870.00 1482.8397 1031.2842 34.3983 4.6082
880.00 1482.8536 1031.3393 34.4031 4.5692
890.00 1482.8674 1031.3944 34.4080 4.5302
900.00 1482.8813 1031.4495 34.4128 4.4911
910.00 1482.8954 1031.5046 34.4177 4.4521
920.00 1482.9154 1031.5591 34.4221 4.4150
930.00 1482.9355 1031.6136 34.4265 4.3779
940.00 1482.9556 1031.6681 34.4310 4.3408
950.00 1482.9757 1031.7225 34.4354 4.3037
960.00 1482.9958 1031.7770 34.4398 4.2666
970.00 1483.0159 1031.8315 34.4442 4.2295
980.00 1483.0360 1031.8860 34.4487 4.1924
990.00 1483.0560 1031.9405 34.4531 4.1553
1000.00 1483.0761 1031.9949 34.4575 4.1182
1010.00 1483.0982 1032.0491 34.4617 4.0817
1020.00 1483.1254 1032.1026 34.4653 4.0468
1030.00 1483.1526 1032.1561 34.4689 4.0119
1040.00 1483.1798 1032.2096 34.4725 3.9770
1050.00 1483.2070 1032.2631 34.4761 3.9421
1060.00 1483.2342 1032.3166 34.4797 3.9072
1070.00 1483.2614 1032.3701 34.4833 3.8723
1080.00 1483.2886 1032.4236 34.4869 3.8374
1090.00 1483.3158 1032.4771 34.4905 3.8025
1100.00 1483.3429 1032.5306 34.4941 3.7676
1110.00 1483.3769 1032.5835 34.4973 3.7345
1120.00 1483.4206 1032.6357 34.5001 3.7040
1130.00 1483.4644 1032.6880 34.5028 3.6734
1140.00 1483.5081 1032.7402 34.5056 3.6429
1150.00 1483.5518 1032.7924 34.5083 3.6124
1160.00 1483.5955 1032.8446 34.5110 3.5818
1170.00 1483.6393 1032.8968 34.5138 3.5513
1180.00 1483.6830 1032.9490 34.5165 3.5208
1190.00 1483.7267 1033.0012 34.5193 3.4903
1200.00 1483.7705 1033.0535 34.5220 3.4597
1210.00 1483.8196 1033.1052 34.5244 3.4306
1220.00 1483.8755 1033.1564 34.5264 3.4033
1230.00 1483.9314 1033.2076 34.5285 3.3760
1240.00 1483.9873 1033.2588 34.5305 3.3487
1250.00 1484.0432 1033.3100 34.5325 3.3214
1260.00 1484.0991 1033.3612 34.5345 3.2940
1270.00 1484.1550 1033.4124 34.5365 3.2667
1280.00 1484.2110 1033.4636 34.5385 3.2394
1290.00 1484.2669 1033.5148 34.5406 3.2121
1300.00 1484.3228 1033.5660 34.5426 3.1848
1310.00 1484.3814 1033.6170 34.5444 3.1582
1320.00 1484.4445 1033.6676 34.5460 3.1328
1330.00 1484.5077 1033.7182 34.5476 3.1074
1340.00 1484.5708 1033.7687 34.5492 3.0820
1350.00 1484.6339 1033.8193 34.5507 3.0565
1360.00 1484.6970 1033.8699 34.5523 3.0311
1370.00 1484.7602 1033.9205 34.5539 3.0057
1380.00 1484.8233 1033.9711 34.5555 2.9803
1390.00 1484.8864 1034.0217 34.5570 2.9549
1400.00 1484.9495 1034.0723 34.5586 2.9295
1410.00 1485.0135 1034.1228 34.5602 2.9043
1420.00 1485.0865 1034.1730 34.5616 2.8813
1430.00 1485.1595 1034.2231 34.5630 2.8583
1440.00 1485.2325 1034.2732 34.5644 2.8353
1450.00 1485.3055 1034.3234 34.5659 2.8122
1460.00 1485.3785 1034.3735 34.5673 2.7892
1470.00 1485.4515 1034.4236 34.5687 2.7662
1480.00 1485.5245 1034.4738 34.5701 2.7432
1490.00 1485.5975 1034.5239 34.5716 2.7202
1500.00 1485.6705 1034.5740 34.5730 2.6972
1510.00 1485.7435 1034.6242 34.5744 2.6741
1520.00 1485.8207 1034.6742 34.5758 2.6521
1530.00 1485.9085 1034.7238 34.5772 2.6325
1540.00 1485.9962 1034.7734 34.5786 2.6129
1550.00 1486.0839 1034.8231 34.5800 2.5933
1560.00 1486.1717 1034.8727 34.5814 2.5737
1570.00 1486.2594 1034.9223 34.5828 2.5541
1580.00 1486.3471 1034.9720 34.5842 2.5345
1590.00 1486.4349 1035.0216 34.5856 2.5149
1600.00 1486.5226 1035.0713 34.5870 2.4953
1610.00 1486.6103 1035.1209 34.5884 2.4757
1620.00 1486.6980 1035.1705 34.5898 2.4561
1630.00 1486.7858 1035.2202 34.5912 2.4366
1640.00 1486.8845 1035.2694 34.5925 2.4195
1650.00 1486.9911 1035.3184 34.5938 2.4042
1660.00 1487.0977 1035.3674 34.5952 2.3889
1670.00 1487.2043 1035.4164 34.5965 2.3736
1680.00 1487.3108 1035.4654 34.5978 2.3583
1690.00 1487.4174 1035.5144 34.5991 2.3430
1700.00 1487.5240 1035.5634 34.6004 2.3277
1710.00 1487.6306 1035.6124 34.6017 2.3124
1720.00 1487.7372 1035.6614 34.6030 2.2971
1730.00 1487.8438 1035.7104 34.6043 2.2818
1740.00 1487.9504 1035.7594 34.6056 2.2665
1750.00 1488.0570 1035.8084 34.6070 2.2512
1760.00 1488.1636 1035.8573 34.6083 2.2359
1770.00 1488.2788 1035.9060 34.6095 2.2226
1780.00 1488.4033 1035.9543 34.6106 2.2113
1790.00 1488.5278 1036.0025 34.6117 2.2000
1800.00 1488.6522 1036.0508 34.6128 2.1888
1810.00 1488.7767 1036.0990 34.6139 2.1775
1820.00 1488.9011 1036.1473 34.6150 2.1663
1830.00 1489.0256 1036.1956 34.6161 2.1550
1840.00 1489.1501 1036.2438 34.6172 2.1437
1850.00 1489.2745 1036.2921 34.6183 2.1325
1860.00 1489.3990 1036.3404 34.6194 2.1212
1870.00 1489.5234 1036.3886 34.6205 2.1100
1880.00 1489.6479 1036.4369 34.6217 2.0987
1890.00 1489.7724 1036.4852 34.6228 2.0874
1900.00 1489.8968 1036.5334 34.6239 2.0762
1910.00 1490.0213 1036.5817 34.6250 2.0649
1920.00 1490.1536 1036.6296 34.6259 2.0554
1930.00 1490.2916 1036.6772 34.6268 2.0472
1940.00 1490.4295 1036.7248 34.6277 2.0389
1950.00 1490.5674 1036.7725 34.6285 2.0306
1960.00 1490.7054 1036.8201 34.6294 2.0224
1970.00 1490.8433 1036.8677 34.6303 2.0141
1980.00 1490.9812 1036.9153 34.6312 2.0058
1990.00 1491.1192 1036.9629 34.6320 1.9976
2000.00 1491.2571 1037.0106 34.6329 1.9893
2010.00 1491.3950 1037.0582 34.6338 1.9810
2020.00 1491.5330 1037.1058 34.6346 1.9728
2030.00 1491.6709 1037.1534 34.6355 1.9645
2040.00 1491.8088 1037.2010 34.6364 1.9562
2050.00 1491.9468 1037.2486 34.6372 1.9480
2060.00 1492.0847 1037.2963 34.6381 1.9397
2070.00 1492.2226 1037.3439 34.6390 1.9315
2080.00 1492.3606 1037.3915 34.6398 1.9232
2090.00 1492.5040 1037.4388 34.6406 1.9161
2100.00 1492.6511 1037.4859 34.6412 1.9098
2110.00 1492.7982 1037.5330 34.6419 1.9035
2120.00 1492.9453 1037.5801 34.6425 1.8972
2130.00 1493.0924 1037.6272 34.6432 1.8909
2140.00 1493.2396 1037.6743 34.6438 1.8846
2150.00 1493.3867 1037.7214 34.6445 1.8784
2160.00 1493.5338 1037.7685 34.6451 1.8721
2170.00 1493.6809 1037.8156 34.6458 1.8658
2180.00 1493.8280 1037.8627 34.6464 1.8595
2190.00 1493.9751 1037.9098 34.6471 1.8532
2200.00 1494.1222 1037.9569 34.6477 1.8469
2210.00 1494.2694 1038.0040 34.6484 1.8406
2220.00 1494.4165 1038.0511 34.6490 1.8343
2230.00 1494.5636 1038.0982 34.6497 1.8280
2240.00 1494.7107 1038.1453 34.6503 1.8217
2250.00 1494.8578 1038.1924 34.6510 1.8155
2260.00 1495.0049 1038.2394 34.6516 1.8092
2270.00 1495.1520 1038.2865 34.6523 1.8029
2280.00 1495.3015 1038.3335 34.6529 1.7971
2290.00 1495.4549 1038.3802 34.6533 1.7920
2300.00 1495.6082 1038.4268 34.6538 1.7870
2310.00 1495.7616 1038.4735 34.6543 1.7820
2320.00 1495.9150 1038.5202 34.6548 1.7770
2330.00 1496.0683 1038.5668 34.6552 1.7720
2340.00 1496.2217 1038.6135 34.6557 1.7669
2350.00 1496.3750 1038.6602 34.6562 1.7619
2360.00 1496.5284 1038.7069 34.6567 1.7569
2370.00 1496.6818 1038.7535 34.6571 1.7519
2380.00 1496.8351 1038.8002 34.6576 1.7469
2390.00 1496.9885 1038.8469 34.6581 1.7418
2400.00 1497.1418 1038.8935 34.6586 1.7368
2410.00 1497.2952 1038.9402 34.6591 1.7318
2420.00 1497.4486 1038.9869 34.6595 1.7268
2430.00 1497.6019 1039.0336 34.6600 1.7217
2440.00 1497.7553 1039.0802 34.6605 1.7167
2450.00 1497.9086 1039.1269 34.6610 1.7117
2460.00 1498.0620 1039.1736 34.6614 1.7067
2470.00 1498.2154 1039.2203 34.6619 1.7017
2480.00 1498.3687 1039.2669 34.6624 1.6966
2490.00 1498.5221 1039.3136 34.6629 1.6916
2500.00 1498.6788 1039.3600 34.6632 1.6872
2510.00 1498.8360 1039.4063 34.6636 1.6829
2520.00 1498.9932 1039.4527 34.6640 1.6785
2530.00 1499.1504 1039.4990 34.6643 1.6742
2540.00 1499.3076 1039.5454 34.6647 1.6698
2550.00 1499.4648 1039.5917 34.6650 1.6655
2560.00 1499.6220 1039.6381 34.6654 1.6612
2570.00 1499.7792 1039.6844 34.6657 1.6568
2580.00 1499.9364 1039.7308 34.6661 1.6525
2590.00 1500.0936 1039.7771 34.6665 1.6482
2600.00 1500.2508 1039.8234 34.6668 1.6438
2610.00 1500.4080 1039.8698 34.6672 1.6395
2620.00 1500.5652 1039.9161 34.6675 1.6352
2630.00 1500.7224 1039.9625 34.6679 1.6308
2640.00 1500.8796 1040.0088 34.6682 1.6265
2650.00 1501.0368 1040.0552 34.6686 1.6221
2660.00 1501.1940 1040.1015 34.6689 1.6178
2670.00 1501.3512 1040.1479 34.6693 1.6135
2680.00 1501.5084 1040.1942 34.6697 1.6091
2690.00 1501.6656 1040.2406 34.6700 1.6048
2700.00 1501.8227 1040.2869 34.6704 1.6005
2710.00 1501.9799 1040.3333 34.6707 1.5961
2720.00 1502.1371 1040.3796 34.6711 1.5918
2730.00 1502.2945 1040.4259 34.6714 1.5875
2740.00 1502.4543 1040.4720 34.6717 1.5835
2750.00 1502.6141 1040.5181 34.6720 1.5796
2760.00 1502.7739 1040.5642 34.6722 1.5756
2770.00 1502.9337 1040.6102 34.6725 1.5716
2780.00 1503.0935 1040.6563 34.6728 1.5677
2790.00 1503.2533 1040.7024 34.6731 1.5637
2800.00 1503.4131 1040.7484 34.6733 1.5597
2810.00 1503.5729 1040.7945 34.6736 1.5558
2820.00 1503.7327 1040.8406 34.6739 1.5518
2830.00 1503.8925 1040.8867 34.6742 1.5478
2840.00 1504.0523 1040.9327 34.6744 1.5439
2850.00 1504.2121 1040.9788 34.6747 1.5399
2860.00 1504.3719 1041.0249 34.6750 1.5360
2870.00 1504.5317 1041.0710 34.6752 1.5320
2880.00 1504.6915 1041.1170 34.6755 1.5280
2890.00 1504.8513 1041.1631 34.6758 1.5241
2900.00 1505.0111 1041.2092 34.6761 1.5201
2910.00 1505.1709 1041.2553 34.6763 1.5161
2920.00 1505.3307 1041.3013 34.6766 1.5122
2930.00 1505.4905 1041.3474 34.6769 1.5082
2940.00 1505.6503 1041.3935 34.6771 1.5043
2950.00 1505.8101 1041.4396 34.6774 1.5003
2960.00 1505.9700 1041.4856 34.6777 1.4963
2970.00 1506.1298 1041.5317 34.6780 1.4924
2980.00 1506.2896 1041.5778 34.6782 1.4884
2990.00 1506.4494 1041.6239 34.6785 1.4844
3000.00 1506.6124 1041.6696 34.6787 1.4810
3010.00 1506.7755 1041.7154 34.6789 1.4775
3020.00 1506.9387 1041.7612 34.6791 1.4741
3030.00 1507.1018 1041.8070 34.6793 1.4706
3040.00 1507.2649 1041.8528 34.6796 1.4672
3050.00 1507.4281 1041.8985 34.6798 1.4637
3060.00 1507.5912 1041.9443 34.6800 1.4603
3070.00 1507.7543 1041.9901 34.6802 1.4568
3080.00 1507.9175 1042.0359 34.6804 1.4533
3090.00 1508.0806 1042.0816 34.6806 1.4499
3100.00 1508.2437 1042.1274 34.6808 1.4464
3110.00 1508.4069 1042.1732 34.6810 1.4430
3120.00 1508.5700 1042.2190 34.6812 1.4395
3130.00 1508.7332 1042.2648 34.6814 1.4361
3140.00 1508.8963 1042.3105 34.6816 1.4326
3150.00 1509.0594 1042.3563 34.6818 1.4292
3160.00 1509.2226 1042.4021 34.6820 1.4257
3170.00 1509.3857 1042.4479 34.6823 1.4223
3180.00 1509.5488 1042.4937 34.6825 1.4188
3190.00 1509.7120 1042.5394 34.6827 1.4153
3200.00 1509.8751 1042.5852 34.6829 1.4119
3210.00 1510.0382 1042.6310 34.6831 1.4084
3220.00 1510.2014 1042.6768 34.6833 1.4050
3230.00 1510.3645 1042.7226 34.6835 1.4015
3240.00 1510.5276 1042.7683 34.6837 1.3981
3250.00 1510.6908 1042.8141 34.6839 1.3946
3260.00 1510.8539 1042.8599 34.6841 1.3912
3270.00 1511.0170 1042.9057 34.6843 1.3877
3280.00 1511.1827 1042.9512 34.6845 1.3847
3290.00 1511.3502 1042.9967 34.6846 1.3819
3300.00 1511.5177 1043.0421 34.6848 1.3792
3310.00 1511.6852 1043.0875 34.6849 1.3765
3320.00 1511.8527 1043.1329 34.6851 1.3737
3330.00 1512.0202 1043.1784 34.6852 1.3710
3340.00 1512.1877 1043.2238 34.6854 1.3683
3350.00 1512.3552 1043.2692 34.6855 1.3655
3360.00 1512.5227 1043.3146 34.6857 1.3628
3370.00 1512.6902 1043.3601 34.6858 1.3600
3380.00 1512.8577 1043.4055 34.6859 1.3573
3390.00 1513.0252 1043.4509 34.6861 1.3546
3400.00 1513.1927 1043.4963 34.6862 1.3518
3410.00 1513.3602 1043.5418 34.6864 1.3491
3420.00 1513.5276 1043.5872 34.6865 1.3464
3430.00 1513.6951 1043.6326 34.6867 1.3436
3440.00 1513.8626 1043.6780 34.6868 1.3409
3450.00 1514.0301 1043.7235 34.6869 1.3382
3460.00 1514.1976 1043.7689 34.6871 1.3354
3470.00 1514.3651 1043.8143 34.6872 1.3327
3480.00 1514.5326 1043.8597 34.6874 1.3299
3490.00 1514.7001 1043.9052 34.6875 1.3272
3500.00 1514.8676 1043.9506 34.6877 1.3245
3510.00 1515.0351 1043.9960 34.6878 1.3217
3520.00 1515.2026 1044.0414 34.6880 1.3190
3530.00 1515.3701 1044.0869 34.6881 1.3163
3540.00 1515.5376 1044.1323 34.6882 1.3135
3550.00 1515.7051 1044.1777 34.6884 1.3108
3560.00 1515.8726 1044.2231 34.6885 1.3081
3570.00 1516.0401 1044.2686 34.6887 1.3053
3580.00 1516.2076 1044.3140 34.6888 1.3026
3590.00 1516.3793 1044.3591 34.6889 1.3006
3600.00 1516.5517 1044.4041 34.6890 1.2986
3610.00 1516.7240 1044.4491 34.6891 1.2967
3620.00 1516.8963 1044.4942 34.6892 1.2948
3630.00 1517.0687 1044.5392 34.6892 1.2928
3640.00 1517.2410 1044.5842 34.6893 1.2909
3650.00 1517.4133 1044.6293 34.6894 1.2890
3660.00 1517.5856 1044.6743 34.6895 1.2871
3670.00 1517.7580 1044.7193 34.6896 1.2851
3680.00 1517.9303 1044.7643 34.6896 1.2832
3690.00 1518.1026 1044.8094 34.6897 1.2813
3700.00 1518.2750 1044.8544 34.6898 1.2793
3710.00 1518.4473 1044.8994 34.6899 1.2774
3720.00 1518.6196 1044.9445 34.6900 1.2755
3730.00 1518.7920 1044.9895 34.6901 1.2736
3740.00 1518.9643 1045.0345 34.6901 1.2716
3750.00 1519.1366 1045.0796 34.6902 1.2697
3760.00 1519.3089 1045.1246 34.6903 1.2678
3770.00 1519.4813 1045.1696 34.6904 1.2658
3780.00 1519.6536 1045.2147 34.6905 1.2639
3790.00 1519.8259 1045.2597 34.6906 1.2620
3800.00 1519.9983 1045.3047 34.6906 1.2600
3810.00 1520.1706 1045.3497 34.6907 1.2581
3820.00 1520.3429 1045.3948 34.6908 1.2562
3830.00 1520.5153 1045.4398 34.6909 1.2543
3840.00 1520.6876 1045.4848 34.6910 1.2523
3850.00 1520.8599 1045.5299 34.6910 1.2504
3860.00 1521.0322 1045.5749 34.6911 1.2485
3870.00 1521.2046 1045.6199 34.6912 1.2465
3880.00 1521.3769 1045.6650 34.6913 1.2446
3890.00 1521.5492 1045.7100 34.6914 1.2427
3900.00 1521.7216 1045.7550 34.6915 1.2408
3910.00 1521.8939 1045.8000 34.6915 1.2388
