# Averages over distance (i) for each depth (k):
# Depth(m) Speed(m/s) Density(kg/m^3) Salt PSU Theta(degC)
0.00 1541.0937 1022.4623 35.0529 27.9176
10.00 1541.2341 1022.5112 35.0542 27.9031
20.00 1541.3307 1022.5693 35.0584 27.8671
30.00 1541.2997 1022.6548 35.0719 27.7682
40.00 1541.1108 1022.7705 35.0932 27.5941
50.00 1540.8185 1022.9009 35.1145 27.3743
60.00 1540.4875 1023.0335 35.1331 27.1401
70.00 1540.1302 1023.1677 35.1502 26.8965
80.00 1539.7160 1023.3094 35.1679 26.6294
90.00 1539.1957 1023.4655 35.1868 26.3178
100.00 1538.5014 1023.6433 35.2055 25.9341
110.00 1537.5540 1023.8475 35.2194 25.4499
120.00 1536.3243 1024.0735 35.2218 24.8603
130.00 1534.8590 1024.3104 35.2101 24.1908
140.00 1533.2366 1024.5489 35.1864 23.4750
150.00 1531.5351 1024.7742 35.1501 22.7537
160.00 1529.8562 1024.9861 35.1096 22.0561
170.00 1528.1955 1025.1871 35.0656 21.3775
180.00 1526.6079 1025.3682 35.0192 20.7459
190.00 1525.0434 1025.5431 34.9721 20.1291
200.00 1523.5364 1025.7057 34.9255 19.5458
210.00 1522.0811 1025.8574 34.8792 18.9925
220.00 1520.6258 1026.0090 34.8329 18.4391
230.00 1519.2321 1026.1475 34.7889 17.9239
240.00 1517.8612 1026.2812 34.7457 17.4228
250.00 1516.4904 1026.4148 34.7025 16.9217
260.00 1515.1312 1026.5451 34.6605 16.4302
270.00 1513.8061 1026.6658 34.6220 15.9670
280.00 1512.4811 1026.7864 34.5836 15.5037
290.00 1511.1560 1026.9071 34.5451 15.0404
300.00 1509.8314 1027.0276 34.5067 14.5774
310.00 1508.5708 1027.1373 34.4760 14.1557
320.00 1507.3102 1027.2469 34.4452 13.7340
330.00 1506.0496 1027.3565 34.4145 13.3122
340.00 1504.7890 1027.4661 34.3838 12.8905
350.00 1503.5284 1027.5758 34.3531 12.4688
360.00 1502.4003 1027.6753 34.3327 12.1029
370.00 1501.2819 1027.7740 34.3130 11.7410
380.00 1500.1634 1027.8728 34.2933 11.3792
390.00 1499.0450 1027.9716 34.2737 11.0173
400.00 1497.9265 1028.0704 34.2540 10.6555
410.00 1496.8098 1028.1691 34.2344 10.2942
420.00 1495.9332 1028.2571 34.2270 10.0123
430.00 1495.0567 1028.3452 34.2196 9.7304
440.00 1494.1801 1028.4332 34.2122 9.4485
450.00 1493.3035 1028.5213 34.2049 9.1667
460.00 1492.4270 1028.6093 34.1975 8.8848
470.00 1491.5504 1028.6974 34.1901 8.6029
480.00 1490.7511 1028.7829 34.1853 8.3433
490.00 1490.1801 1028.8611 34.1881 8.1495
500.00 1489.6090 1028.9392 34.1909 7.9556
510.00 1489.0379 1029.0174 34.1937 7.7618
520.00 1488.4669 1029.0956 34.1965 7.5680
530.00 1487.8958 1029.1737 34.1993 7.3741
540.00 1487.3247 1029.2519 34.2021 7.1803
550.00 1486.7536 1029.3301 34.2049 6.9864
560.00 1486.3864 1029.4023 34.2119 6.8470
570.00 1486.0949 1029.4722 34.2205 6.7279
580.00 1485.8035 1029.5422 34.2291 6.6087
590.00 1485.5120 1029.6122 34.2377 6.4895
600.00 1485.2206 1029.6822 34.2462 6.3704
610.00 1484.9291 1029.7522 34.2548 6.2512
620.00 1484.6376 1029.8221 34.2634 6.1321
630.00 1484.3462 1029.8921 34.2720 6.0129
640.00 1484.1475 1029.9588 34.2811 5.9178
650.00 1484.0321 1030.0226 34.2907 5.8443
660.00 1483.9168 1030.0864 34.3002 5.7708
670.00 1483.8015 1030.1501 34.3098 5.6974
680.00 1483.6862 1030.2139 34.3194 5.6239
690.00 1483.5708 1030.2777 34.3289 5.5504
700.00 1483.4555 1030.3415 34.3385 5.4769
710.00 1483.3402 1030.4052 34.3481 5.4035
720.00 1483.2249 1030.4690 34.3576 5.3300
730.00 1483.1678 1030.5293 34.3656 5.2720
740.00 1483.1291 1030.5884 34.3731 5.2190
750.00 1483.0905 1030.6476 34.3805 5.1659
760.00 1483.0518 1030.7067 34.3880 5.1128
770.00 1483.0131 1030.7658 34.3955 5.0597
780.00 1482.9744 1030.8250 34.4029 5.0066
790.00 1482.9358 1030.8841 34.4104 4.9536
800.00 1482.8971 1030.9433 34.4179 4.9005
810.00 1482.8584 1031.0024 34.4253 4.8474
820.00 1482.8377 1031.0597 34.4314 4.7994
830.00 1482.8316 1031.1155 34.4362 4.7556
840.00 1482.8254 1031.1712 34.4411 4.7117
850.00 1482.8193 1031.2270 34.4459 4.6679
860.00 1482.8131 1031.2827 34.4508 4.6241
870.00 1482.8070 1031.3385 34.4556 4.5802
880.00 1482.8008 1031.3943 34.4605 4.5364
890.00 1482.7947 1031.4500 34.4653 4.4925
900.00 1482.7885 1031.5058 34.4702 4.4487
910.00 1482.7829 1031.5615 34.4750 4.4050
920.00 1482.7979 1031.6150 34.4781 4.3672
930.00 1482.8130 1031.6685 34.4812 4.3293
940.00 1482.8280 1031.7220 34.4843 4.2915
950.00 1482.8430 1031.7756 34.4874 4.2536
960.00 1482.8581 1031.8291 34.4905 4.2158
970.00 1482.8731 1031.8826 34.4936 4.1779
980.00 1482.8881 1031.9361 34.4967 4.1401
990.00 1482.9031 1031.9897 34.4998 4.1022
1000.00 1482.9182 1032.0432 34.5029 4.0644
1010.00 1482.9379 1032.0963 34.5057 4.0278
1020.00 1482.9695 1032.1485 34.5079 3.9945
1030.00 1483.0011 1032.2006 34.5101 3.9611
1040.00 1483.0327 1032.2528 34.5123 3.9277
1050.00 1483.0642 1032.3050 34.5144 3.8944
1060.00 1483.0958 1032.3571 34.5166 3.8610
1070.00 1483.1274 1032.4093 34.5188 3.8276
1080.00 1483.1590 1032.4615 34.5210 3.7943
1090.00 1483.1906 1032.5136 34.5231 3.7609
1100.00 1483.2222 1032.5658 34.5253 3.7275
1110.00 1483.2591 1032.6176 34.5273 3.6956
1120.00 1483.3037 1032.6689 34.5290 3.6656
1130.00 1483.3483 1032.7202 34.5306 3.6357
1140.00 1483.3929 1032.7715 34.5323 3.6057
1150.00 1483.4375 1032.8228 34.5340 3.5757
1160.00 1483.4821 1032.8741 34.5357 3.5458
1170.00 1483.5267 1032.9253 34.5373 3.5158
1180.00 1483.5713 1032.9766 34.5390 3.4859
1190.00 1483.6159 1033.0279 34.5407 3.4559
