# Averages over distance (i) for each depth (k):
# Depth(m) Speed(m/s) Density(kg/m^3) Salt PSU Theta(degC)
0.00 1511.9043 1024.9917 34.3030 16.9669
10.00 1511.9799 1025.0422 34.3014 16.9362
20.00 1511.9071 1025.1025 34.2977 16.8572
30.00 1511.4524 1025.1868 34.2878 16.6548
40.00 1510.5149 1025.3006 34.2705 16.2987
50.00 1509.1781 1025.4371 34.2476 15.8192
60.00 1507.6422 1025.5821 34.2220 15.2833
70.00 1506.0913 1025.7238 34.1963 14.7503
80.00 1504.6505 1025.8551 34.1715 14.2584
90.00 1503.3690 1025.9730 34.1471 13.8214
100.00 1502.2367 1026.0788 34.1224 13.4348
110.00 1501.2241 1026.1757 34.0983 13.0877
120.00 1500.2832 1026.2684 34.0763 12.7644
130.00 1499.3493 1026.3618 34.0572 12.4448
140.00 1498.3874 1026.4590 34.0423 12.1177
150.00 1497.4346 1026.5655 34.0413 11.7919
160.00 1496.5386 1026.6783 34.0527 11.4801
170.00 1495.6884 1026.7961 34.0742 11.1797
180.00 1494.9744 1026.9183 34.1109 10.9155
190.00 1494.3034 1027.0417 34.1525 10.6628
200.00 1493.7250 1027.1621 34.1968 10.4368
210.00 1493.2300 1027.2795 34.2436 10.2348
220.00 1492.7351 1027.3970 34.2905 10.0328
230.00 1492.2951 1027.5027 34.3276 9.8516
240.00 1491.8756 1027.6041 34.3611 9.6781
250.00 1491.4562 1027.7054 34.3947 9.5045
260.00 1491.0324 1027.8017 34.4223 9.3326
270.00 1490.5958 1027.8827 34.4322 9.1656
280.00 1490.1592 1027.9637 34.4422 8.9985
290.00 1489.7226 1028.0447 34.4521 8.8315
300.00 1489.2857 1028.1256 34.4620 8.6644
310.00 1488.8168 1028.1928 34.4557 8.4977
320.00 1488.3478 1028.2600 34.4495 8.3309
330.00 1487.8789 1028.3272 34.4432 8.1642
340.00 1487.4099 1028.3944 34.4370 7.9975
350.00 1486.9410 1028.4616 34.4307 7.8307
360.00 1486.5202 1028.5220 34.4205 7.6812
370.00 1486.1030 1028.5819 34.4100 7.5330
380.00 1485.6858 1028.6418 34.3995 7.3848
390.00 1485.2686 1028.7017 34.3891 7.2366
400.00 1484.8513 1028.7615 34.3786 7.0884
410.00 1484.4352 1028.8214 34.3681 6.9405
420.00 1484.1707 1028.8766 34.3603 6.8332
430.00 1483.9063 1028.9317 34.3524 6.7259
440.00 1483.6418 1028.9869 34.3446 6.6187
450.00 1483.3774 1029.0421 34.3368 6.5114
460.00 1483.1129 1029.0973 34.3289 6.4042
470.00 1482.8485 1029.1524 34.3211 6.2969
480.00 1482.6208 1029.2071 34.3144 6.1989
490.00 1482.5017 1029.2602 34.3109 6.1282
500.00 1482.3827 1029.3132 34.3074 6.0576
510.00 1482.2636 1029.3663 34.3039 5.9869
520.00 1482.1445 1029.4194 34.3005 5.9163
530.00 1482.0254 1029.4725 34.2970 5.8456
540.00 1481.9064 1029.5256 34.2935 5.7750
550.00 1481.7873 1029.5787 34.2900 5.7043
560.00 1481.7231 1029.6317 34.2890 5.6470
570.00 1481.6792 1029.6848 34.2888 5.5947
580.00 1481.6353 1029.7378 34.2886 5.5423
590.00 1481.5914 1029.7908 34.2884 5.4900
600.00 1481.5476 1029.8439 34.2882 5.4377
610.00 1481.5037 1029.8969 34.2880 5.3854
620.00 1481.4598 1029.9499 34.2878 5.3330
630.00 1481.4160 1030.0030 34.2876 5.2807
640.00 1481.3844 1030.0564 34.2885 5.2313
650.00 1481.3639 1030.1102 34.2903 5.1845
660.00 1481.3433 1030.1641 34.2922 5.1378
670.00 1481.3228 1030.2179 34.2940 5.0910
680.00 1481.3023 1030.2717 34.2959 5.0442
690.00 1481.2817 1030.3255 34.2977 4.9975
700.00 1481.2612 1030.3794 34.2996 4.9507
710.00 1481.2407 1030.4332 34.3014 4.9039
720.00 1481.2201 1030.4870 34.3032 4.8572
730.00 1481.2063 1030.5415 34.3062 4.8120
740.00 1481.1945 1030.5961 34.3095 4.7673
750.00 1481.1828 1030.6508 34.3129 4.7226
760.00 1481.1711 1030.7054 34.3162 4.6779
770.00 1481.1593 1030.7601 34.3195 4.6332
780.00 1481.1476 1030.8147 34.3228 4.5886
790.00 1481.1358 1030.8694 34.3261 4.5439
800.00 1481.1241 1030.9240 34.3295 4.4992
810.00 1481.1124 1030.9787 34.3328 4.4545
820.00 1481.1106 1031.0335 34.3367 4.4122
830.00 1481.1168 1031.0884 34.3412 4.3719
840.00 1481.1230 1031.1433 34.3456 4.3315
850.00 1481.1292 1031.1983 34.3501 4.2911
860.00 1481.1354 1031.2532 34.3545 4.2508
870.00 1481.1416 1031.3081 34.3590 4.2104
880.00 1481.1479 1031.3631 34.3634 4.1701
890.00 1481.1541 1031.4180 34.3679 4.1297
900.00 1481.1603 1031.4729 34.3724 4.0894
910.00 1481.1673 1031.5278 34.3768 4.0492
920.00 1481.2053 1031.5820 34.3816 4.0165
930.00 1481.2432 1031.6362 34.3864 3.9839
940.00 1481.2812 1031.6904 34.3912 3.9512
950.00 1481.3191 1031.7446 34.3960 3.9185
960.00 1481.3571 1031.7988 34.4009 3.8859
970.00 1481.3951 1031.8530 34.4057 3.8532
980.00 1481.4330 1031.9072 34.4105 3.8206
990.00 1481.4710 1031.9614 34.4153 3.7879
1000.00 1481.5089 1032.0156 34.4201 3.7552
1010.00 1481.5550 1032.0695 34.4248 3.7246
1020.00 1481.6217 1032.1223 34.4291 3.6990
1030.00 1481.6884 1032.1752 34.4334 3.6734
1040.00 1481.7550 1032.2281 34.4376 3.6478
1050.00 1481.8217 1032.2810 34.4419 3.6222
1060.00 1481.8884 1032.3339 34.4462 3.5966
1070.00 1481.9550 1032.3867 34.4505 3.5710
1080.00 1482.0217 1032.4396 34.4548 3.5454
1090.00 1482.0883 1032.4925 34.4591 3.5198
1100.00 1482.1550 1032.5454 34.4634 3.4942
1110.00 1482.2280 1032.5978 34.4674 3.4702
1120.00 1482.3102 1032.6495 34.4709 3.4486
1130.00 1482.3924 1032.7012 34.4744 3.4270
1140.00 1482.4745 1032.7529 34.4778 3.4053
1150.00 1482.5567 1032.8046 34.4813 3.3837
1160.00 1482.6389 1032.8563 34.4848 3.3620
1170.00 1482.7210 1032.9080 34.4883 3.3404
1180.00 1482.8032 1032.9597 34.4917 3.3187
1190.00 1482.8854 1033.0114 34.4952 3.2971
1200.00 1482.9675 1033.0631 34.4987 3.2755
1210.00 1483.0531 1033.1144 34.5019 3.2547
1220.00 1483.1427 1033.1653 34.5046 3.2351
1230.00 1483.2324 1033.2162 34.5074 3.2154
1240.00 1483.3220 1033.2670 34.5102 3.1958
1250.00 1483.4117 1033.3179 34.5129 3.1761
1260.00 1483.5013 1033.3688 34.5157 3.1565
1270.00 1483.5910 1033.4196 34.5185 3.1368
1280.00 1483.6807 1033.4705 34.5212 3.1172
1290.00 1483.7703 1033.5213 34.5240 3.0975
1300.00 1483.8600 1033.5722 34.5268 3.0778
1310.00 1483.9514 1033.6229 34.5294 3.0587
1320.00 1484.0458 1033.6732 34.5317 3.0403
1330.00 1484.1402 1033.7235 34.5340 3.0219
1340.00 1484.2346 1033.7738 34.5362 3.0035
1350.00 1484.3290 1033.8240 34.5385 2.9851
1360.00 1484.4234 1033.8743 34.5408 2.9667
1370.00 1484.5178 1033.9246 34.5431 2.9483
1380.00 1484.6122 1033.9749 34.5454 2.9299
1390.00 1484.7066 1034.0252 34.5477 2.9115
1400.00 1484.8010 1034.0755 34.5500 2.8931
1410.00 1484.8957 1034.1258 34.5522 2.8748
1420.00 1484.9943 1034.1757 34.5542 2.8574
1430.00 1485.0929 1034.2256 34.5562 2.8401
1440.00 1485.1914 1034.2754 34.5581 2.8228
1450.00 1485.2900 1034.3253 34.5601 2.8054
1460.00 1485.3885 1034.3752 34.5621 2.7881
1470.00 1485.4871 1034.4251 34.5640 2.7707
1480.00 1485.5856 1034.4749 34.5660 2.7534
1490.00 1485.6842 1034.5248 34.5679 2.7360
1500.00 1485.7828 1034.5747 34.5699 2.7187
1510.00 1485.8813 1034.6246 34.5719 2.7014
1520.00 1485.9813 1034.6743 34.5738 2.6844
1530.00 1486.0850 1034.7238 34.5754 2.6682
