# Averages over distance (i) for each depth (k):
# Depth(m) Speed(m/s) Density(kg/m^3) Salt PSU Theta(degC)
0.00 1541.0899 1022.4639 35.0540 27.9153
10.00 1541.2302 1022.5127 35.0552 27.9008
20.00 1541.3265 1022.5709 35.0595 27.8646
30.00 1541.2947 1022.6565 35.0730 27.7654
40.00 1541.1047 1022.7724 35.0942 27.5908
50.00 1540.8115 1022.9028 35.1155 27.3707
60.00 1540.4798 1023.0355 35.1340 27.1361
70.00 1540.1217 1023.1697 35.1511 26.8923
80.00 1539.7064 1023.3115 35.1688 26.6248
90.00 1539.1848 1023.4677 35.1875 26.3126
100.00 1538.4885 1023.6456 35.2062 25.9282
110.00 1537.5389 1023.8499 35.2199 25.4432
120.00 1536.3072 1024.0759 35.2220 24.8530
130.00 1534.8403 1024.3127 35.2101 24.1832
140.00 1533.2170 1024.5511 35.1862 23.4672
150.00 1531.5157 1024.7762 35.1498 22.7462
160.00 1529.8374 1024.9878 35.1092 22.0490
170.00 1528.1778 1025.1886 35.0652 21.3710
180.00 1526.5919 1025.3695 35.0188 20.7402
190.00 1525.0293 1025.5442 34.9718 20.1241
200.00 1523.5243 1025.7066 34.9252 19.5416
210.00 1522.0713 1025.8581 34.8790 18.9891
220.00 1520.6182 1026.0096 34.8328 18.4366
230.00 1519.2270 1026.1479 34.7888 17.9222
240.00 1517.8588 1026.2814 34.7457 17.4219
250.00 1516.4906 1026.4149 34.7026 16.9217
260.00 1515.1339 1026.5451 34.6607 16.4310
270.00 1513.8113 1026.6656 34.6223 15.9685
280.00 1512.4888 1026.7861 34.5839 15.5060
290.00 1511.1662 1026.9067 34.5455 15.0434
300.00 1509.8441 1027.0271 34.5071 14.5812
310.00 1508.5853 1027.1367 34.4764 14.1599
320.00 1507.3264 1027.2462 34.4457 13.7387
330.00 1506.0675 1027.3558 34.4150 13.3174
340.00 1504.8087 1027.4653 34.3843 12.8962
350.00 1503.5498 1027.5749 34.3536 12.4749
360.00 1502.4223 1027.6744 34.3331 12.1091
370.00 1501.3044 1027.7731 34.3134 11.7474
380.00 1500.1865 1027.8719 34.2937 11.3856
390.00 1499.0686 1027.9706 34.2740 11.0239
400.00 1497.9507 1028.0694 34.2543 10.6621
410.00 1496.8345 1028.1680 34.2347 10.3009
420.00 1495.9571 1028.2561 34.2272 10.0188
430.00 1495.0797 1028.3442 34.2198 9.7367
440.00 1494.2024 1028.4322 34.2123 9.4546
450.00 1493.3250 1028.5203 34.2049 9.1725
460.00 1492.4476 1028.6083 34.1974 8.8904
470.00 1491.5702 1028.6964 34.1900 8.6082
480.00 1490.7700 1028.7820 34.1851 8.3483
490.00 1490.1973 1028.8602 34.1879 8.1541
500.00 1489.6247 1028.9384 34.1906 7.9599
510.00 1489.0521 1029.0166 34.1934 7.7656
520.00 1488.4794 1029.0948 34.1961 7.5714
530.00 1487.9068 1029.1730 34.1989 7.3771
540.00 1487.3341 1029.2512 34.2016 7.1829
550.00 1486.7615 1029.3294 34.2044 6.9886
560.00 1486.3929 1029.4016 34.2114 6.8489
570.00 1486.1001 1029.4716 34.2199 6.7294
580.00 1485.8074 1029.5416 34.2285 6.6099
590.00 1485.5146 1029.6116 34.2371 6.4904
600.00 1485.2219 1029.6816 34.2456 6.3709
610.00 1484.9291 1029.7516 34.2542 6.2514
620.00 1484.6363 1029.8216 34.2627 6.1320
630.00 1484.3436 1029.8916 34.2713 6.0125
640.00 1484.1440 1029.9584 34.2804 5.9171
650.00 1484.0281 1030.0222 34.2900 5.8435
660.00 1483.9123 1030.0860 34.2995 5.7699
670.00 1483.7964 1030.1497 34.3091 5.6963
680.00 1483.6806 1030.2135 34.3187 5.6227
690.00 1483.5647 1030.2773 34.3283 5.5491
700.00 1483.4489 1030.3411 34.3378 5.4755
710.00 1483.3330 1030.4049 34.3474 5.4019
720.00 1483.2172 1030.4687 34.3570 5.3283
730.00 1483.1600 1030.5290 34.3650 5.2703
740.00 1483.1213 1030.5882 34.3724 5.2172
750.00 1483.0826 1030.6473 34.3799 5.1642
760.00 1483.0440 1030.7065 34.3874 5.1111
770.00 1483.0053 1030.7656 34.3949 5.0580
780.00 1482.9666 1030.8248 34.4024 5.0049
790.00 1482.9279 1030.8840 34.4099 4.9518
800.00 1482.8892 1030.9431 34.4174 4.8987
810.00 1482.8506 1031.0023 34.4248 4.8456
820.00 1482.8299 1031.0596 34.4309 4.7977
830.00 1482.8240 1031.1153 34.4358 4.7539
840.00 1482.8180 1031.1711 34.4406 4.7101
850.00 1482.8120 1031.2269 34.4455 4.6663
860.00 1482.8060 1031.2826 34.4504 4.6225
870.00 1482.8000 1031.3384 34.4552 4.5787
880.00 1482.7940 1031.3942 34.4601 4.5348
890.00 1482.7880 1031.4500 34.4650 4.4910
900.00 1482.7820 1031.5057 34.4699 4.4472
910.00 1482.7766 1031.5614 34.4747 4.4036
920.00 1482.7918 1031.6150 34.4778 4.3658
930.00 1482.8070 1031.6685 34.4809 4.3280
940.00 1482.8222 1031.7220 34.4840 4.2902
950.00 1482.8374 1031.7755 34.4871 4.2524
960.00 1482.8526 1031.8291 34.4903 4.2145
970.00 1482.8678 1031.8826 34.4934 4.1767
980.00 1482.8830 1031.9361 34.4965 4.1389
990.00 1482.8982 1031.9897 34.4996 4.1011
1000.00 1482.9134 1032.0432 34.5027 4.0633
1010.00 1482.9333 1032.0963 34.5056 4.0268
1020.00 1482.9651 1032.1485 34.5077 3.9935
1030.00 1482.9968 1032.2007 34.5099 3.9601
1040.00 1483.0286 1032.2528 34.5121 3.9268
1050.00 1483.0603 1032.3050 34.5143 3.8935
1060.00 1483.0921 1032.3571 34.5165 3.8601
1070.00 1483.1238 1032.4093 34.5187 3.8268
1080.00 1483.1556 1032.4615 34.5208 3.7935
1090.00 1483.1873 1032.5136 34.5230 3.7602
1100.00 1483.2191 1032.5658 34.5252 3.7268
1110.00 1483.2561 1032.6176 34.5272 3.6949
1120.00 1483.3008 1032.6689 34.5289 3.6650
1130.00 1483.3456 1032.7202 34.5305 3.6350
1140.00 1483.3903 1032.7715 34.5322 3.6051
1150.00 1483.4350 1032.8228 34.5339 3.5752
1160.00 1483.4797 1032.8741 34.5356 3.5452
1170.00 1483.5245 1032.9254 34.5373 3.5153
1180.00 1483.5692 1032.9767 34.5389 3.4854
1190.00 1483.6139 1033.0279 34.5406 3.4555
1200.00 1483.6586 1033.0792 34.5423 3.4255
1210.00 1483.7079 1033.1303 34.5439 3.3968
1220.00 1483.7629 1033.1810 34.5452 3.3695
1230.00 1483.8180 1033.2316 34.5466 3.3422
1240.00 1483.8730 1033.2823 34.5480 3.3149
1250.00 1483.9280 1033.3330 34.5494 3.2876
1260.00 1483.9830 1033.3837 34.5507 3.2603
1270.00 1484.0380 1033.4344 34.5521 3.2330
1280.00 1484.0930 1033.4851 34.5535 3.2057
1290.00 1484.1480 1033.5358 34.5549 3.1784
1300.00 1484.2030 1033.5864 34.5563 3.1511
1310.00 1484.2616 1033.6370 34.5576 3.1247
1320.00 1484.3259 1033.6872 34.5588 3.0997
1330.00 1484.3903 1033.7374 34.5600 3.0747
1340.00 1484.4546 1033.7876 34.5612 3.0497
1350.00 1484.5190 1033.8379 34.5624 3.0247
1360.00 1484.5833 1033.8881 34.5636 2.9998
1370.00 1484.6477 1033.9383 34.5648 2.9748
1380.00 1484.7120 1033.9886 34.5660 2.9498
1390.00 1484.7764 1034.0388 34.5672 2.9248
1400.00 1484.8408 1034.0890 34.5684 2.8998
1410.00 1484.9061 1034.1392 34.5696 2.8751
1420.00 1484.9818 1034.1890 34.5707 2.8528
1430.00 1485.0576 1034.2387 34.5718 2.8306
1440.00 1485.1333 1034.2885 34.5729 2.8083
1450.00 1485.2091 1034.3383 34.5740 2.7861
1460.00 1485.2848 1034.3880 34.5751 2.7638
1470.00 1485.3605 1034.4378 34.5761 2.7415
1480.00 1485.4363 1034.4876 34.5772 2.7193
1490.00 1485.5120 1034.5373 34.5783 2.6970
1500.00 1485.5878 1034.5871 34.5794 2.6748
1510.00 1485.6635 1034.6369 34.5805 2.6525
1520.00 1485.7435 1034.6865 34.5816 2.6312
1530.00 1485.8339 1034.7357 34.5826 2.6124
1540.00 1485.9242 1034.7849 34.5836 2.5935
1550.00 1486.0146 1034.8342 34.5846 2.5747
1560.00 1486.1049 1034.8834 34.5856 2.5558
1570.00 1486.1953 1034.9326 34.5866 2.5369
1580.00 1486.2857 1034.9818 34.5876 2.5181
1590.00 1486.3760 1035.0311 34.5886 2.4992
1600.00 1486.4664 1035.0803 34.5896 2.4803
1610.00 1486.5567 1035.1295 34.5906 2.4615
1620.00 1486.6471 1035.1788 34.5916 2.4426
1630.00 1486.7375 1035.2280 34.5926 2.4238
1640.00 1486.8370 1035.2769 34.5936 2.4070
1650.00 1486.9430 1035.3256 34.5945 2.3917
1660.00 1487.0491 1035.3742 34.5954 2.3764
1670.00 1487.1552 1035.4229 34.5963 2.3611
1680.00 1487.2613 1035.4716 34.5972 2.3459
1690.00 1487.3673 1035.5202 34.5981 2.3306
1700.00 1487.4734 1035.5689 34.5990 2.3153
1710.00 1487.5795 1035.6176 34.6000 2.3000
1720.00 1487.6856 1035.6663 34.6009 2.2847
1730.00 1487.7917 1035.7149 34.6018 2.2695
1740.00 1487.8977 1035.7636 34.6027 2.2542
1750.00 1488.0038 1035.8123 34.6036 2.2389
1760.00 1488.1099 1035.8609 34.6045 2.2236
1770.00 1488.2229 1035.9093 34.6054 2.2099
1780.00 1488.3431 1035.9575 34.6062 2.1978
1790.00 1488.4634 1036.0056 34.6070 2.1857
1800.00 1488.5837 1036.0537 34.6078 2.1736
1810.00 1488.7039 1036.1019 34.6086 2.1615
1820.00 1488.8242 1036.1500 34.6094 2.1494
1830.00 1488.9445 1036.1981 34.6102 2.1373
1840.00 1489.0648 1036.2462 34.6110 2.1252
1850.00 1489.1850 1036.2944 34.6118 2.1131
1860.00 1489.3053 1036.3425 34.6126 2.1010
1870.00 1489.4256 1036.3906 34.6134 2.0889
1880.00 1489.5458 1036.4388 34.6142 2.0768
1890.00 1489.6661 1036.4869 34.6150 2.0647
1900.00 1489.7864 1036.5350 34.6158 2.0526
1910.00 1489.9066 1036.5831 34.6166 2.0405
1920.00 1490.0336 1036.6310 34.6174 2.0299
1930.00 1490.1654 1036.6786 34.6180 2.0203
1940.00 1490.2972 1036.7263 34.6187 2.0107
1950.00 1490.4290 1036.7739 34.6194 2.0011
1960.00 1490.5608 1036.8216 34.6201 1.9916
1970.00 1490.6926 1036.8692 34.6208 1.9820
1980.00 1490.8244 1036.9169 34.6215 1.9724
1990.00 1490.9562 1036.9645 34.6222 1.9628
2000.00 1491.0879 1037.0121 34.6228 1.9533
2010.00 1491.2197 1037.0598 34.6235 1.9437
2020.00 1491.3515 1037.1074 34.6242 1.9341
2030.00 1491.4833 1037.1551 34.6249 1.9245
2040.00 1491.6151 1037.2027 34.6256 1.9150
2050.00 1491.7469 1037.2504 34.6263 1.9054
2060.00 1491.8787 1037.2980 34.6269 1.8958
2070.00 1492.0105 1037.3457 34.6276 1.8862
2080.00 1492.1423 1037.3933 34.6283 1.8767
2090.00 1492.2795 1037.4407 34.6289 1.8682
2100.00 1492.4204 1037.4879 34.6295 1.8606
2110.00 1492.5613 1037.5351 34.6301 1.8530
2120.00 1492.7022 1037.5823 34.6306 1.8453
2130.00 1492.8431 1037.6295 34.6312 1.8377
2140.00 1492.9841 1037.6768 34.6318 1.8301
2150.00 1493.1250 1037.7240 34.6323 1.8224
2160.00 1493.2659 1037.7712 34.6329 1.8148
2170.00 1493.4068 1037.8184 34.6335 1.8072
2180.00 1493.5477 1037.8656 34.6340 1.7995
2190.00 1493.6886 1037.9128 34.6346 1.7919
2200.00 1493.8295 1037.9600 34.6352 1.7842
2210.00 1493.9705 1038.0073 34.6357 1.7766
2220.00 1494.1114 1038.0545 34.6363 1.7690
2230.00 1494.2523 1038.1017 34.6369 1.7613
2240.00 1494.3932 1038.1489 34.6375 1.7537
2250.00 1494.5341 1038.1961 34.6380 1.7461
2260.00 1494.6750 1038.2433 34.6386 1.7384
2270.00 1494.8160 1038.2905 34.6392 1.7308
2280.00 1494.9597 1038.3376 34.6397 1.7237
2290.00 1495.1080 1038.3844 34.6401 1.7176
2300.00 1495.2564 1038.4312 34.6406 1.7115
2310.00 1495.4047 1038.4781 34.6411 1.7054
2320.00 1495.5531 1038.5249 34.6415 1.6993
2330.00 1495.7014 1038.5717 34.6420 1.6931
2340.00 1495.8497 1038.6185 34.6425 1.6870
2350.00 1495.9981 1038.6653 34.6429 1.6809
2360.00 1496.1464 1038.7122 34.6434 1.6748
2370.00 1496.2948 1038.7590 34.6439 1.6687
2380.00 1496.4431 1038.8058 34.6443 1.6625
2390.00 1496.5915 1038.8526 34.6448 1.6564
2400.00 1496.7398 1038.8994 34.6453 1.6503
2410.00 1496.8881 1038.9463 34.6457 1.6442
2420.00 1497.0365 1038.9931 34.6462 1.6381
2430.00 1497.1848 1039.0399 34.6466 1.6319
2440.00 1497.3332 1039.0867 34.6471 1.6258
2450.00 1497.4815 1039.1335 34.6476 1.6197
2460.00 1497.6299 1039.1804 34.6480 1.6136
2470.00 1497.7782 1039.2272 34.6485 1.6075
2480.00 1497.9266 1039.2740 34.6490 1.6013
2490.00 1498.0749 1039.3208 34.6494 1.5952
2500.00 1498.2287 1039.3673 34.6498 1.5902
2510.00 1498.3832 1039.4138 34.6502 1.5852
2520.00 1498.5378 1039.4602 34.6506 1.5803
2530.00 1498.6924 1039.5067 34.6509 1.5754
2540.00 1498.8469 1039.5531 34.6513 1.5705
2550.00 1499.0015 1039.5996 34.6517 1.5656
2560.00 1499.1560 1039.6461 34.6521 1.5607
2570.00 1499.3106 1039.6925 34.6525 1.5558
2580.00 1499.4651 1039.7390 34.6528 1.5508
2590.00 1499.6197 1039.7854 34.6532 1.5459
2600.00 1499.7742 1039.8319 34.6536 1.5410
2610.00 1499.9288 1039.8783 34.6540 1.5361
2620.00 1500.0834 1039.9248 34.6544 1.5312
2630.00 1500.2379 1039.9713 34.6547 1.5263
2640.00 1500.3925 1040.0177 34.6551 1.5213
2650.00 1500.5470 1040.0642 34.6555 1.5164
2660.00 1500.7016 1040.1106 34.6559 1.5115
2670.00 1500.8561 1040.1571 34.6562 1.5066
2680.00 1501.0107 1040.2035 34.6566 1.5017
2690.00 1501.1652 1040.2500 34.6570 1.4968
2700.00 1501.3198 1040.2965 34.6574 1.4919
2710.00 1501.4744 1040.3429 34.6578 1.4869
2720.00 1501.6289 1040.3894 34.6581 1.4820
2730.00 1501.7839 1040.4358 34.6585 1.4772
2740.00 1501.9438 1040.4819 34.6588 1.4733
2750.00 1502.1037 1040.5280 34.6591 1.4693
2760.00 1502.2636 1040.5741 34.6594 1.4654
2770.00 1502.4235 1040.6202 34.6598 1.4614
2780.00 1502.5834 1040.6664 34.6601 1.4575
2790.00 1502.7433 1040.7125 34.6604 1.4536
2800.00 1502.9032 1040.7586 34.6607 1.4496
2810.00 1503.0631 1040.8047 34.6610 1.4457
2820.00 1503.2230 1040.8508 34.6613 1.4418
2830.00 1503.3829 1040.8969 34.6616 1.4378
2840.00 1503.5428 1040.9430 34.6619 1.4339
2850.00 1503.7027 1040.9891 34.6622 1.4300
2860.00 1503.8626 1041.0353 34.6625 1.4260
2870.00 1504.0225 1041.0814 34.6629 1.4221
2880.00 1504.1824 1041.1275 34.6632 1.4181
2890.00 1504.3423 1041.1736 34.6635 1.4142
2900.00 1504.5022 1041.2197 34.6638 1.4103
2910.00 1504.6621 1041.2658 34.6641 1.4063
2920.00 1504.8220 1041.3119 34.6644 1.4024
2930.00 1504.9819 1041.3580 34.6647 1.3985
2940.00 1505.1418 1041.4042 34.6650 1.3945
2950.00 1505.3017 1041.4503 34.6653 1.3906
2960.00 1505.4616 1041.4964 34.6656 1.3866
2970.00 1505.6215 1041.5425 34.6660 1.3827
2980.00 1505.7814 1041.5886 34.6663 1.3788
2990.00 1505.9413 1041.6347 34.6666 1.3748
3000.00 1506.1057 1041.6805 34.6668 1.3717
3010.00 1506.2702 1041.7263 34.6671 1.3685
3020.00 1506.4347 1041.7721 34.6674 1.3654
3030.00 1506.5992 1041.8178 34.6676 1.3622
3040.00 1506.7637 1041.8636 34.6679 1.3590
3050.00 1506.9282 1041.9094 34.6681 1.3559
3060.00 1507.0926 1041.9552 34.6684 1.3527
3070.00 1507.2571 1042.0010 34.6686 1.3496
3080.00 1507.4216 1042.0468 34.6689 1.3464
3090.00 1507.5861 1042.0925 34.6692 1.3433
3100.00 1507.7506 1042.1383 34.6694 1.3401
3110.00 1507.9151 1042.1841 34.6697 1.3369
3120.00 1508.0796 1042.2299 34.6699 1.3338
3130.00 1508.2441 1042.2757 34.6702 1.3306
3140.00 1508.4086 1042.3214 34.6705 1.3275
3150.00 1508.5731 1042.3672 34.6707 1.3243
3160.00 1508.7375 1042.4130 34.6710 1.3212
3170.00 1508.9020 1042.4588 34.6712 1.3180
3180.00 1509.0665 1042.5046 34.6715 1.3149
3190.00 1509.2310 1042.5504 34.6718 1.3117
3200.00 1509.3955 1042.5961 34.6720 1.3085
3210.00 1509.5600 1042.6419 34.6723 1.3054
3220.00 1509.7245 1042.6877 34.6725 1.3022
3230.00 1509.8890 1042.7335 34.6728 1.2991
3240.00 1510.0535 1042.7793 34.6730 1.2959
3250.00 1510.2180 1042.8250 34.6733 1.2928
3260.00 1510.3824 1042.8708 34.6736 1.2896
3270.00 1510.5469 1042.9166 34.6738 1.2865
3280.00 1510.7137 1042.9622 34.6741 1.2836
3290.00 1510.8821 1043.0077 34.6743 1.2811
3300.00 1511.0505 1043.0531 34.6745 1.2786
3310.00 1511.2189 1043.0986 34.6747 1.2760
3320.00 1511.3874 1043.1440 34.6749 1.2735
3330.00 1511.5558 1043.1895 34.6752 1.2709
3340.00 1511.7242 1043.2350 34.6754 1.2684
3350.00 1511.8926 1043.2804 34.6756 1.2658
3360.00 1512.0610 1043.3259 34.6758 1.2633
3370.00 1512.2294 1043.3713 34.6760 1.2607
3380.00 1512.3979 1043.4168 34.6763 1.2582
3390.00 1512.5663 1043.4623 34.6765 1.2557
3400.00 1512.7347 1043.5077 34.6767 1.2531
3410.00 1512.9031 1043.5532 34.6769 1.2506
3420.00 1513.0715 1043.5986 34.6771 1.2480
3430.00 1513.2399 1043.6441 34.6774 1.2455
3440.00 1513.4084 1043.6896 34.6776 1.2429
3450.00 1513.5768 1043.7350 34.6778 1.2404
3460.00 1513.7452 1043.7805 34.6780 1.2378
3470.00 1513.9136 1043.8259 34.6782 1.2353
3480.00 1514.0820 1043.8714 34.6785 1.2328
3490.00 1514.2504 1043.9169 34.6787 1.2302
3500.00 1514.4189 1043.9623 34.6789 1.2277
3510.00 1514.5873 1044.0078 34.6791 1.2251
3520.00 1514.7557 1044.0532 34.6793 1.2226
3530.00 1514.9241 1044.0987 34.6796 1.2200
3540.00 1515.0925 1044.1442 34.6798 1.2175
3550.00 1515.2609 1044.1896 34.6800 1.2149
3560.00 1515.4294 1044.2351 34.6802 1.2124
3570.00 1515.5978 1044.2805 34.6804 1.2098
3580.00 1515.7662 1044.3260 34.6807 1.2073
3590.00 1515.9379 1044.3712 34.6808 1.2052
3600.00 1516.1101 1044.4163 34.6810 1.2033
3610.00 1516.2823 1044.4614 34.6812 1.2013
3620.00 1516.4545 1044.5065 34.6814 1.1993
3630.00 1516.6266 1044.5516 34.6816 1.1973
3640.00 1516.7988 1044.5968 34.6818 1.1953
3650.00 1516.9710 1044.6419 34.6819 1.1933
3660.00 1517.1432 1044.6870 34.6821 1.1914
3670.00 1517.3154 1044.7321 34.6823 1.1894
3680.00 1517.4875 1044.7772 34.6825 1.1874
3690.00 1517.6597 1044.8224 34.6827 1.1854
3700.00 1517.8319 1044.8675 34.6829 1.1834
3710.00 1518.0041 1044.9126 34.6830 1.1814
3720.00 1518.1763 1044.9577 34.6832 1.1794
3730.00 1518.3485 1045.0029 34.6834 1.1775
3740.00 1518.5206 1045.0480 34.6836 1.1755
3750.00 1518.6928 1045.0931 34.6838 1.1735
3760.00 1518.8650 1045.1382 34.6840 1.1715
3770.00 1519.0372 1045.1833 34.6841 1.1695
3780.00 1519.2094 1045.2285 34.6843 1.1675
3790.00 1519.3815 1045.2736 34.6845 1.1656
3800.00 1519.5537 1045.3187 34.6847 1.1636
3810.00 1519.7259 1045.3638 34.6849 1.1616
3820.00 1519.8981 1045.4089 34.6851 1.1596
3830.00 1520.0703 1045.4541 34.6852 1.1576
3840.00 1520.2425 1045.4992 34.6854 1.1556
3850.00 1520.4146 1045.5443 34.6856 1.1536
3860.00 1520.5868 1045.5894 34.6858 1.1517
3870.00 1520.7590 1045.6345 34.6860 1.1497
3880.00 1520.9312 1045.6797 34.6862 1.1477
3890.00 1521.1034 1045.7248 34.6863 1.1457
3900.00 1521.2755 1045.7699 34.6865 1.1437
3910.00 1521.4477 1045.8150 34.6867 1.1417
3920.00 1521.6225 1045.8599 34.6869 1.1401
3930.00 1521.7976 1045.9047 34.6870 1.1385
3940.00 1521.9728 1045.9495 34.6872 1.1369
3950.00 1522.1479 1045.9942 34.6873 1.1352
3960.00 1522.3231 1046.0390 34.6875 1.1336
3970.00 1522.4982 1046.0838 34.6876 1.1320
3980.00 1522.6734 1046.1286 34.6878 1.1304
3990.00 1522.8485 1046.1734 34.6879 1.1288
4000.00 1523.0237 1046.2182 34.6881 1.1272
4010.00 1523.1988 1046.2630 34.6883 1.1255
4020.00 1523.3740 1046.3078 34.6884 1.1239
4030.00 1523.5491 1046.3526 34.6886 1.1223
4040.00 1523.7242 1046.3974 34.6887 1.1207
4050.00 1523.8994 1046.4422 34.6889 1.1191
4060.00 1524.0745 1046.4870 34.6890 1.1175
4070.00 1524.2497 1046.5318 34.6892 1.1159
4080.00 1524.4248 1046.5766 34.6893 1.1142
4090.00 1524.6000 1046.6214 34.6895 1.1126
4100.00 1524.7751 1046.6662 34.6896 1.1110
4110.00 1524.9503 1046.7110 34.6898 1.1094
4120.00 1525.1254 1046.7558 34.6899 1.1078
4130.00 1525.3005 1046.8006 34.6901 1.1062
4140.00 1525.4757 1046.8453 34.6903 1.1046
4150.00 1525.6508 1046.8901 34.6904 1.1029
4160.00 1525.8260 1046.9349 34.6906 1.1013
4170.00 1526.0011 1046.9797 34.6907 1.0997
4180.00 1526.1763 1047.0245 34.6909 1.0981
4190.00 1526.3514 1047.0693 34.6910 1.0965
4200.00 1526.5266 1047.1141 34.6912 1.0949
4210.00 1526.7017 1047.1589 34.6913 1.0933
4220.00 1526.8769 1047.2037 34.6915 1.0916
4230.00 1527.0520 1047.2485 34.6916 1.0900
4240.00 1527.2271 1047.2933 34.6918 1.0884
4250.00 1527.4023 1047.3381 34.6919 1.0868
4260.00 1527.5774 1047.3829 34.6921 1.0852
4270.00 1527.7527 1047.4276 34.6923 1.0834
4280.00 1527.9279 1047.4722 34.6924 1.0815
4290.00 1528.1032 1047.5168 34.6926 1.0796
4300.00 1528.2785 1047.5614 34.6928 1.0777
4310.00 1528.4538 1047.6060 34.6929 1.0758
4320.00 1528.6290 1047.6506 34.6931 1.0739
4330.00 1528.8043 1047.6951 34.6933 1.0720
4340.00 1528.9796 1047.7397 34.6934 1.0701
4350.00 1529.1549 1047.7843 34.6936 1.0682
4360.00 1529.3301 1047.8289 34.6937 1.0664
4370.00 1529.5054 1047.8735 34.6939 1.0645
4380.00 1529.6807 1047.9181 34.6941 1.0626
4390.00 1529.8560 1047.9627 34.6942 1.0607
4400.00 1530.0312 1048.0073 34.6944 1.0588
4410.00 1530.2065 1048.0519 34.6946 1.0569
4420.00 1530.3818 1048.0965 34.6947 1.0550
4430.00 1530.5571 1048.1411 34.6949 1.0531
4440.00 1530.7323 1048.1857 34.6951 1.0512
4450.00 1530.9076 1048.2303 34.6952 1.0493
4460.00 1531.0829 1048.2749 34.6954 1.0474
4470.00 1531.2582 1048.3195 34.6956 1.0455
4480.00 1531.4334 1048.3641 34.6957 1.0436
4490.00 1531.6087 1048.4087 34.6959 1.0417
4500.00 1531.7840 1048.4533 34.6961 1.0398
4510.00 1531.9593 1048.4979 34.6962 1.0379
4520.00 1532.1345 1048.5425 34.6964 1.0360
4530.00 1532.3098 1048.5871 34.6965 1.0341
4540.00 1532.4851 1048.6317 34.6967 1.0322
4550.00 1532.6604 1048.6763 34.6969 1.0303
4560.00 1532.8356 1048.7209 34.6970 1.0284
4570.00 1533.0109 1048.7655 34.6972 1.0265
4580.00 1533.1862 1048.8101 34.6974 1.0247
4590.00 1533.3615 1048.8547 34.6975 1.0228
4600.00 1533.5367 1048.8993 34.6977 1.0209
4610.00 1533.7120 1048.9439 34.6979 1.0190
4620.00 1533.8873 1048.9885 34.6980 1.0171
4630.00 1534.0626 1049.0331 34.6982 1.0152
4640.00 1534.2378 1049.0777 34.6984 1.0133
4650.00 1534.4225 1049.1215 34.6984 1.0132
4660.00 1534.6074 1049.1654 34.6984 1.0132
4670.00 1534.7923 1049.2092 34.6984 1.0132
4680.00 1534.9771 1049.2531 34.6984 1.0132
4690.00 1535.1620 1049.2969 34.6984 1.0132
4700.00 1535.3469 1049.3407 34.6984 1.0132
4710.00 1535.5318 1049.3846 34.6984 1.0132
