# Averages over distance (i) for each depth (k):
# Depth(m) Speed(m/s) Density(kg/m^3) Salt PSU Theta(degC)
0.00 1511.3599 1025.0083 34.2729 16.7986
10.00 1511.4346 1025.0588 34.2714 16.7677
20.00 1511.3615 1025.1190 34.2678 16.6889
30.00 1510.9077 1025.2032 34.2584 16.4876
40.00 1509.9692 1025.3171 34.2422 16.1323
50.00 1508.6236 1025.4543 34.2209 15.6515
60.00 1507.0688 1025.6006 34.1969 15.1115
70.00 1505.4904 1025.7441 34.1726 14.5717
80.00 1504.0164 1025.8773 34.1490 14.0715
90.00 1502.6984 1025.9971 34.1255 13.6252
100.00 1501.5342 1026.1044 34.1017 13.2306
110.00 1500.5142 1026.2020 34.0792 12.8825
120.00 1499.6002 1026.2942 34.0594 12.5680
130.00 1498.7154 1026.3864 34.0433 12.2633
140.00 1497.8099 1026.4824 34.0317 11.9530
150.00 1496.9015 1026.5889 34.0344 11.6399
160.00 1496.0401 1026.7026 34.0498 11.3379
170.00 1495.2167 1026.8219 34.0754 11.0447
180.00 1494.5255 1026.9454 34.1157 10.7866
190.00 1493.8760 1027.0701 34.1606 10.5395
200.00 1493.3225 1027.1905 34.2069 10.3205
210.00 1492.8553 1027.3069 34.2543 10.1266
220.00 1492.3881 1027.4232 34.3018 9.9327
230.00 1491.9776 1027.5265 34.3379 9.7603
240.00 1491.5881 1027.6250 34.3699 9.5959
250.00 1491.1986 1027.7234 34.4018 9.4315
260.00 1490.8021 1027.8169 34.4278 9.2680
270.00 1490.3848 1027.8956 34.4362 9.1069
280.00 1489.9675 1027.9744 34.4447 8.9458
290.00 1489.5503 1028.0531 34.4531 8.7847
300.00 1489.1326 1028.1318 34.4614 8.6236
310.00 1488.6679 1028.1983 34.4547 8.4583
320.00 1488.2031 1028.2648 34.4479 8.2930
330.00 1487.7384 1028.3313 34.4411 8.1277
340.00 1487.2736 1028.3978 34.4343 7.9624
350.00 1486.8089 1028.4643 34.4275 7.7971
360.00 1486.3907 1028.5244 34.4172 7.6485
370.00 1485.9760 1028.5841 34.4067 7.5011
380.00 1485.5613 1028.6438 34.3961 7.3536
390.00 1485.1466 1028.7035 34.3856 7.2062
400.00 1484.7318 1028.7632 34.3750 7.0588
410.00 1484.3182 1028.8228 34.3645 6.9117
420.00 1484.0582 1028.8779 34.3568 6.8055
430.00 1483.7982 1028.9330 34.3490 6.6994
440.00 1483.5381 1028.9880 34.3413 6.5933
450.00 1483.2781 1029.0431 34.3336 6.4872
460.00 1483.0181 1029.0981 34.3259 6.3811
470.00 1482.7581 1029.1532 34.3181 6.2750
480.00 1482.5346 1029.2077 34.3115 6.1781
490.00 1482.4191 1029.2608 34.3081 6.1083
500.00 1482.3036 1029.3138 34.3047 6.0386
510.00 1482.1881 1029.3669 34.3014 5.9688
520.00 1482.0726 1029.4199 34.2980 5.8990
530.00 1481.9570 1029.4730 34.2946 5.8293
540.00 1481.8415 1029.5260 34.2913 5.7595
550.00 1481.7260 1029.5790 34.2879 5.6897
560.00 1481.6640 1029.6321 34.2869 5.6330
570.00 1481.6219 1029.6851 34.2867 5.5811
580.00 1481.5798 1029.7381 34.2866 5.5292
590.00 1481.5377 1029.7911 34.2864 5.4773
600.00 1481.4956 1029.8441 34.2863 5.4254
610.00 1481.4535 1029.8971 34.2862 5.3735
620.00 1481.4113 1029.9501 34.2860 5.3216
630.00 1481.3692 1030.0031 34.2859 5.2697
640.00 1481.3389 1030.0566 34.2868 5.2206
650.00 1481.3192 1030.1104 34.2886 5.1741
660.00 1481.2995 1030.1642 34.2905 5.1275
670.00 1481.2799 1030.2179 34.2923 5.0810
680.00 1481.2602 1030.2717 34.2942 5.0344
690.00 1481.2405 1030.3255 34.2960 4.9879
700.00 1481.2208 1030.3793 34.2978 4.9413
710.00 1481.2011 1030.4331 34.2997 4.8948
720.00 1481.1814 1030.4869 34.3015 4.8482
730.00 1481.1683 1030.5413 34.3045 4.8032
740.00 1481.1573 1030.5959 34.3077 4.7588
750.00 1481.1464 1030.6505 34.3110 4.7143
760.00 1481.1354 1030.7051 34.3143 4.6698
770.00 1481.1244 1030.7597 34.3176 4.6253
780.00 1481.1134 1030.8142 34.3209 4.5809
790.00 1481.1025 1030.8688 34.3241 4.5364
800.00 1481.0915 1030.9234 34.3274 4.4919
810.00 1481.0805 1030.9780 34.3307 4.4474
820.00 1481.0790 1031.0328 34.3346 4.4052
830.00 1481.0851 1031.0877 34.3390 4.3649
840.00 1481.0913 1031.1426 34.3434 4.3245
850.00 1481.0974 1031.1975 34.3478 4.2842
860.00 1481.1036 1031.2524 34.3522 4.2438
870.00 1481.1097 1031.3073 34.3566 4.2035
880.00 1481.1158 1031.3622 34.3610 4.1631
890.00 1481.1220 1031.4171 34.3655 4.1227
900.00 1481.1281 1031.4720 34.3699 4.0824
910.00 1481.1351 1031.5268 34.3743 4.0422
920.00 1481.1723 1031.5811 34.3791 4.0094
930.00 1481.2095 1031.6353 34.3839 3.9766
940.00 1481.2468 1031.6895 34.3887 3.9437
950.00 1481.2840 1031.7437 34.3935 3.9109
960.00 1481.3212 1031.7980 34.3984 3.8781
970.00 1481.3584 1031.8522 34.4032 3.8452
980.00 1481.3957 1031.9064 34.4080 3.8124
990.00 1481.4329 1031.9606 34.4128 3.7796
1000.00 1481.4701 1032.0149 34.4176 3.7467
1010.00 1481.5157 1032.0687 34.4223 3.7160
1020.00 1481.5824 1032.1216 34.4266 3.6904
1030.00 1481.6491 1032.1746 34.4310 3.6648
1040.00 1481.7158 1032.2275 34.4353 3.6392
1050.00 1481.7825 1032.2804 34.4397 3.6136
1060.00 1481.8492 1032.3333 34.4440 3.5880
1070.00 1481.9159 1032.3863 34.4484 3.5624
1080.00 1481.9826 1032.4392 34.4527 3.5368
1090.00 1482.0493 1032.4921 34.4571 3.5112
1100.00 1482.1160 1032.5450 34.4614 3.4856
1110.00 1482.1894 1032.5975 34.4655 3.4617
1120.00 1482.2724 1032.6492 34.4690 3.4402
1130.00 1482.3555 1032.7009 34.4725 3.4188
1140.00 1482.4386 1032.7526 34.4761 3.3973
1150.00 1482.5217 1032.8044 34.4796 3.3759
1160.00 1482.6048 1032.8561 34.4832 3.3544
1170.00 1482.6879 1032.9078 34.4867 3.3330
1180.00 1482.7710 1032.9596 34.4902 3.3116
1190.00 1482.8541 1033.0113 34.4938 3.2901
1200.00 1482.9372 1033.0630 34.4973 3.2687
1210.00 1483.0236 1033.1144 34.5005 3.2481
1220.00 1483.1143 1033.1653 34.5034 3.2287
1230.00 1483.2050 1033.2161 34.5062 3.2093
1240.00 1483.2956 1033.2670 34.5090 3.1898
1250.00 1483.3863 1033.3179 34.5118 3.1704
1260.00 1483.4770 1033.3688 34.5146 3.1510
1270.00 1483.5676 1033.4197 34.5175 3.1315
1280.00 1483.6583 1033.4705 34.5203 3.1121
1290.00 1483.7490 1033.5214 34.5231 3.0927
1300.00 1483.8396 1033.5723 34.5259 3.0732
1310.00 1483.9320 1033.6229 34.5286 3.0543
1320.00 1484.0272 1033.6733 34.5309 3.0360
1330.00 1484.1223 1033.7236 34.5332 3.0178
1340.00 1484.2174 1033.7739 34.5355 2.9996
1350.00 1484.3126 1033.8242 34.5378 2.9813
1360.00 1484.4077 1033.8745 34.5402 2.9631
1370.00 1484.5029 1033.9248 34.5425 2.9449
1380.00 1484.5980 1033.9751 34.5448 2.9266
1390.00 1484.6932 1034.0254 34.5471 2.9084
1400.00 1484.7883 1034.0757 34.5494 2.8902
1410.00 1484.8838 1034.1260 34.5517 2.8720
1420.00 1484.9828 1034.1758 34.5537 2.8548
1430.00 1485.0819 1034.2257 34.5557 2.8375
1440.00 1485.1809 1034.2756 34.5577 2.8203
1450.00 1485.2800 1034.3255 34.5597 2.8031
1460.00 1485.3791 1034.3753 34.5616 2.7858
1470.00 1485.4781 1034.4252 34.5636 2.7686
1480.00 1485.5772 1034.4751 34.5656 2.7514
1490.00 1485.6762 1034.5250 34.5676 2.7341
1500.00 1485.7753 1034.5748 34.5696 2.7169
1510.00 1485.8743 1034.6247 34.5715 2.6997
1520.00 1485.9748 1034.6745 34.5734 2.6828
1530.00 1486.0787 1034.7239 34.5751 2.6667
1540.00 1486.1826 1034.7734 34.5769 2.6507
1550.00 1486.2866 1034.8229 34.5786 2.6346
1560.00 1486.3905 1034.8723 34.5803 2.6186
1570.00 1486.4944 1034.9218 34.5820 2.6025
1580.00 1486.5983 1034.9713 34.5837 2.5865
1590.00 1486.7023 1035.0207 34.5854 2.5704
1600.00 1486.8062 1035.0702 34.5871 2.5544
1610.00 1486.9101 1035.1196 34.5888 2.5383
1620.00 1487.0140 1035.1691 34.5905 2.5223
1630.00 1487.1180 1035.2186 34.5922 2.5062
1640.00 1487.2261 1035.2678 34.5937 2.4911
1650.00 1487.3372 1035.3168 34.5951 2.4768
1660.00 1487.4484 1035.3658 34.5966 2.4624
1670.00 1487.5595 1035.4147 34.5980 2.4480
1680.00 1487.6707 1035.4637 34.5994 2.4337
1690.00 1487.7818 1035.5127 34.6009 2.4193
1700.00 1487.8929 1035.5617 34.6023 2.4049
1710.00 1488.0041 1035.6107 34.6037 2.3906
1720.00 1488.1152 1035.6597 34.6052 2.3762
1730.00 1488.2264 1035.7087 34.6066 2.3619
1740.00 1488.3375 1035.7577 34.6080 2.3475
1750.00 1488.4487 1035.8067 34.6095 2.3331
1760.00 1488.5598 1035.8557 34.6109 2.3188
1770.00 1488.6756 1035.9045 34.6122 2.3054
1780.00 1488.7962 1035.9529 34.6134 2.2932
1790.00 1488.9168 1036.0014 34.6145 2.2810
1800.00 1489.0374 1036.0498 34.6157 2.2688
1810.00 1489.1580 1036.0983 34.6168 2.2566
1820.00 1489.2786 1036.1468 34.6180 2.2444
1830.00 1489.3993 1036.1952 34.6192 2.2322
1840.00 1489.5199 1036.2437 34.6203 2.2200
1850.00 1489.6405 1036.2921 34.6215 2.2078
1860.00 1489.7611 1036.3406 34.6227 2.1956
1870.00 1489.8817 1036.3891 34.6238 2.1834
1880.00 1490.0023 1036.4375 34.6250 2.1712
1890.00 1490.1230 1036.4860 34.6262 2.1590
1900.00 1490.2436 1036.5344 34.6273 2.1468
1910.00 1490.3642 1036.5829 34.6285 2.1346
1920.00 1490.4911 1036.6310 34.6295 2.1238
1930.00 1490.6224 1036.6789 34.6304 2.1139
1940.00 1490.7537 1036.7268 34.6314 2.1041
1950.00 1490.8850 1036.7747 34.6323 2.0943
1960.00 1491.0163 1036.8226 34.6332 2.0845
1970.00 1491.1477 1036.8705 34.6341 2.0747
1980.00 1491.2790 1036.9184 34.6350 2.0649
1990.00 1491.4103 1036.9663 34.6360 2.0550
2000.00 1491.5416 1037.0142 34.6369 2.0452
2010.00 1491.6730 1037.0621 34.6378 2.0354
2020.00 1491.8043 1037.1100 34.6387 2.0256
2030.00 1491.9356 1037.1579 34.6396 2.0158
2040.00 1492.0669 1037.2058 34.6406 2.0059
2050.00 1492.1982 1037.2536 34.6415 1.9961
2060.00 1492.3296 1037.3015 34.6424 1.9863
2070.00 1492.4609 1037.3494 34.6433 1.9765
2080.00 1492.5922 1037.3973 34.6442 1.9667
2090.00 1492.7298 1037.4449 34.6450 1.9582
2100.00 1492.8717 1037.4922 34.6457 1.9507
2110.00 1493.0136 1037.5396 34.6464 1.9432
2120.00 1493.1554 1037.5869 34.6472 1.9356
2130.00 1493.2973 1037.6343 34.6479 1.9281
2140.00 1493.4392 1037.6816 34.6486 1.9206
2150.00 1493.5811 1037.7289 34.6493 1.9131
