# Averages over distance (i) for each depth (k):
# Depth(m) Speed(m/s) Density(kg/m^3) Salt PSU Theta(degC)
0.00 1525.5397 1024.9733 35.6912 21.1837
10.00 1525.6220 1025.0266 35.6918 21.1504
20.00 1525.4980 1025.1016 35.6929 21.0398
30.00 1525.0256 1025.2108 35.6930 20.8003
40.00 1524.3553 1025.3364 35.6902 20.4907
50.00 1523.6282 1025.4644 35.6856 20.1639
60.00 1522.9292 1025.5874 35.6801 19.8506
70.00 1522.2988 1025.7024 35.6746 19.5646
80.00 1521.7448 1025.8090 35.6689 19.3083
90.00 1521.2748 1025.9069 35.6631 19.0835
100.00 1520.9029 1025.9953 35.6575 18.8946
110.00 1520.6260 1026.0747 35.6520 18.7399
120.00 1520.4205 1026.1474 35.6464 18.6109
130.00 1520.2530 1026.2162 35.6406 18.4957
140.00 1520.0950 1026.2837 35.6343 18.3843
150.00 1519.8892 1026.3533 35.6260 18.2578
160.00 1519.6170 1026.4263 35.6152 18.1099
170.00 1519.2912 1026.5019 35.6025 17.9449
180.00 1518.8618 1026.5823 35.5859 17.7475
190.00 1518.3996 1026.6640 35.5681 17.5400
200.00 1517.8737 1026.7481 35.5480 17.3138
210.00 1517.2904 1026.8343 35.5259 17.0709
220.00 1516.7071 1026.9205 35.5038 16.8279
230.00 1516.0802 1027.0068 35.4802 16.5751
240.00 1515.4370 1027.0931 35.4562 16.3185
250.00 1514.7938 1027.1795 35.4321 16.0620
260.00 1514.1485 1027.2649 35.4078 15.8066
270.00 1513.4971 1027.3476 35.3830 15.5545
280.00 1512.8457 1027.4304 35.3582 15.3024
290.00 1512.1943 1027.5131 35.3334 15.0504
300.00 1511.5428 1027.5958 35.3086 14.7984
310.00 1510.8862 1027.6738 35.2826 14.5530
320.00 1510.2296 1027.7518 35.2567 14.3076
330.00 1509.5730 1027.8297 35.2307 14.0623
340.00 1508.9163 1027.9077 35.2047 13.8169
350.00 1508.2597 1027.9857 35.1788 13.5715
360.00 1507.6113 1028.0586 35.1522 13.3368
370.00 1506.9636 1028.1310 35.1257 13.1029
380.00 1506.3158 1028.2035 35.0991 12.8690
390.00 1505.6681 1028.2760 35.0726 12.6351
400.00 1505.0203 1028.3484 35.0460 12.4012
410.00 1504.3730 1028.4209 35.0195 12.1675
420.00 1503.7965 1028.4869 34.9953 11.9618
430.00 1503.2200 1028.5530 34.9711 11.7560
440.00 1502.6434 1028.6191 34.9469 11.5503
450.00 1502.0669 1028.6852 34.9227 11.3446
460.00 1501.4903 1028.7513 34.8985 11.1389
470.00 1500.9138 1028.8173 34.8743 10.9331
480.00 1500.3675 1028.8820 34.8513 10.7372
490.00 1499.9105 1028.9424 34.8317 10.5701
500.00 1499.4535 1029.0028 34.8122 10.4030
510.00 1498.9965 1029.0632 34.7927 10.2360
520.00 1498.5395 1029.1236 34.7732 10.0689
530.00 1498.0825 1029.1840 34.7537 9.9018
540.00 1497.6256 1029.2444 34.7341 9.7347
550.00 1497.1686 1029.3048 34.7146 9.5677
560.00 1496.7967 1029.3625 34.6987 9.4260
570.00 1496.4564 1029.4191 34.6841 9.2937
580.00 1496.1162 1029.4758 34.6695 9.1615
590.00 1495.7759 1029.5325 34.6548 9.0292
600.00 1495.4356 1029.5892 34.6402 8.8970
610.00 1495.0954 1029.6458 34.6256 8.7647
620.00 1494.7551 1029.7025 34.6110 8.6324
630.00 1494.4149 1029.7592 34.5964 8.5002
640.00 1494.1234 1029.8149 34.5841 8.3818
650.00 1493.8758 1029.8696 34.5738 8.2758
660.00 1493.6282 1029.9244 34.5635 8.1698
670.00 1493.3805 1029.9792 34.5533 8.0638
680.00 1493.1329 1030.0339 34.5430 7.9578
690.00 1492.8853 1030.0887 34.5327 7.8518
700.00 1492.6377 1030.1435 34.5225 7.7459
710.00 1492.3901 1030.1982 34.5122 7.6399
720.00 1492.1425 1030.2530 34.5019 7.5339
730.00 1491.9436 1030.3074 34.4945 7.4413
740.00 1491.7602 1030.3617 34.4879 7.3529
750.00 1491.5768 1030.4160 34.4813 7.2645
760.00 1491.3933 1030.4703 34.4747 7.1761
770.00 1491.2099 1030.5245 34.4682 7.0877
780.00 1491.0265 1030.5788 34.4616 6.9993
790.00 1490.8430 1030.6331 34.4550 6.9109
800.00 1490.6596 1030.6874 34.4485 6.8225
810.00 1490.4762 1030.7417 34.4419 6.7341
820.00 1490.3138 1030.7962 34.4371 6.6514
830.00 1490.1686 1030.8510 34.4337 6.5733
840.00 1490.0233 1030.9058 34.4302 6.4952
850.00 1489.8781 1030.9606 34.4268 6.4171
860.00 1489.7328 1031.0153 34.4234 6.3390
870.00 1489.5875 1031.0701 34.4200 6.2609
880.00 1489.4423 1031.1249 34.4166 6.1828
890.00 1489.2970 1031.1797 34.4132 6.1047
900.00 1489.1517 1031.2344 34.4098 6.0266
910.00 1489.0071 1031.2893 34.4064 5.9486
920.00 1488.8867 1031.3449 34.4057 5.8772
930.00 1488.7663 1031.4005 34.4050 5.8057
940.00 1488.6459 1031.4561 34.4043 5.7343
950.00 1488.5255 1031.5117 34.4036 5.6628
960.00 1488.4051 1031.5673 34.4029 5.5914
970.00 1488.2847 1031.6229 34.4022 5.5199
980.00 1488.1643 1031.6785 34.4015 5.4485
990.00 1488.0439 1031.7341 34.4008 5.3770
1000.00 1487.9235 1031.7897 34.4001 5.3056
1010.00 1487.8105 1031.8455 34.4000 5.2360
1020.00 1487.7161 1031.9016 34.4015 5.1714
1030.00 1487.6218 1031.9578 34.4030 5.1067
1040.00 1487.5274 1032.0139 34.4045 5.0420
1050.00 1487.4331 1032.0701 34.4060 4.9773
1060.00 1487.3387 1032.1262 34.4075 4.9127
1070.00 1487.2444 1032.1824 34.4090 4.8480
1080.00 1487.1500 1032.2385 34.4105 4.7833
1090.00 1487.0557 1032.2946 34.4120 4.7186
1100.00 1486.9613 1032.3508 34.4135 4.6540
1110.00 1486.8808 1032.4069 34.4156 4.5928
1120.00 1486.8204 1032.4629 34.4187 4.5366
1130.00 1486.7599 1032.5189 34.4217 4.4805
1140.00 1486.6994 1032.5749 34.4248 4.4243
1150.00 1486.6389 1032.6309 34.4279 4.3681
1160.00 1486.5785 1032.6869 34.4309 4.3120
1170.00 1486.5180 1032.7430 34.4340 4.2558
1180.00 1486.4575 1032.7990 34.4370 4.1997
1190.00 1486.3970 1032.8550 34.4401 4.1435
1200.00 1486.3366 1032.9110 34.4431 4.0874
1210.00 1486.2938 1032.9667 34.4465 4.0356
1220.00 1486.2730 1033.0219 34.4504 3.9892
1230.00 1486.2521 1033.0771 34.4542 3.9428
1240.00 1486.2313 1033.1324 34.4581 3.8964
1250.00 1486.2105 1033.1876 34.4619 3.8500
1260.00 1486.1897 1033.2428 34.4658 3.8036
1270.00 1486.1688 1033.2980 34.4696 3.7572
1280.00 1486.1480 1033.3532 34.4735 3.7108
1290.00 1486.1272 1033.4085 34.4773 3.6644
1300.00 1486.1063 1033.4637 34.4811 3.6180
1310.00 1486.1002 1033.5184 34.4850 3.5752
1320.00 1486.1181 1033.5724 34.4889 3.5383
1330.00 1486.1360 1033.6263 34.4928 3.5014
1340.00 1486.1539 1033.6803 34.4966 3.4644
1350.00 1486.1719 1033.7342 34.5005 3.4275
1360.00 1486.1898 1033.7882 34.5044 3.3905
1370.00 1486.2077 1033.8421 34.5083 3.3536
1380.00 1486.2256 1033.8961 34.5122 3.3166
1390.00 1486.2435 1033.9500 34.5160 3.2797
1400.00 1486.2614 1034.0040 34.5199 3.2427
1410.00 1486.2823 1034.0578 34.5237 3.2065
1420.00 1486.3351 1034.1101 34.5270 3.1781
1430.00 1486.3879 1034.1624 34.5303 3.1496
1440.00 1486.4407 1034.2148 34.5336 3.1212
1450.00 1486.4935 1034.2671 34.5369 3.0927
1460.00 1486.5463 1034.3194 34.5401 3.0642
1470.00 1486.5991 1034.3718 34.5434 3.0358
1480.00 1486.6519 1034.4241 34.5467 3.0073
1490.00 1486.7048 1034.4764 34.5500 2.9789
1500.00 1486.7576 1034.5288 34.5533 2.9504
1510.00 1486.8104 1034.5811 34.5565 2.9220
1520.00 1486.8718 1034.6330 34.5596 2.8956
1530.00 1486.9543 1034.6836 34.5620 2.8744
1540.00 1487.0367 1034.7343 34.5644 2.8531
1550.00 1487.1192 1034.7850 34.5668 2.8318
1560.00 1487.2017 1034.8356 34.5692 2.8106
1570.00 1487.2842 1034.8863 34.5716 2.7893
1580.00 1487.3666 1034.9370 34.5740 2.7681
1590.00 1487.4491 1034.9877 34.5764 2.7468
1600.00 1487.5316 1035.0383 34.5788 2.7255
1610.00 1487.6141 1035.0890 34.5812 2.7043
1620.00 1487.6965 1035.1397 34.5836 2.6830
1630.00 1487.7790 1035.1903 34.5861 2.6617
1640.00 1487.8742 1035.2403 34.5880 2.6435
1650.00 1487.9786 1035.2896 34.5897 2.6275
1660.00 1488.0830 1035.3390 34.5914 2.6115
1670.00 1488.1873 1035.3884 34.5931 2.5954
1680.00 1488.2917 1035.4378 34.5947 2.5794
1690.00 1488.3961 1035.4872 34.5964 2.5634
1700.00 1488.5004 1035.5366 34.5981 2.5473
1710.00 1488.6048 1035.5860 34.5998 2.5313
1720.00 1488.7092 1035.6354 34.6014 2.5153
1730.00 1488.8135 1035.6847 34.6031 2.4993
1740.00 1488.9179 1035.7341 34.6048 2.4832
1750.00 1489.0223 1035.7835 34.6065 2.4672
1760.00 1489.1266 1035.8329 34.6082 2.4512
1770.00 1489.2376 1035.8819 34.6096 2.4367
1780.00 1489.3556 1035.9305 34.6109 2.4238
1790.00 1489.4735 1035.9791 34.6121 2.4109
1800.00 1489.5915 1036.0277 34.6134 2.3981
1810.00 1489.7094 1036.0763 34.6146 2.3852
1820.00 1489.8274 1036.1248 34.6159 2.3724
1830.00 1489.9454 1036.1734 34.6171 2.3595
1840.00 1490.0633 1036.2220 34.6184 2.3466
1850.00 1490.1813 1036.2706 34.6196 2.3338
1860.00 1490.2992 1036.3192 34.6208 2.3209
1870.00 1490.4172 1036.3678 34.6221 2.3081
1880.00 1490.5351 1036.4164 34.6233 2.2952
1890.00 1490.6531 1036.4649 34.6246 2.2823
1900.00 1490.7710 1036.5135 34.6258 2.2695
1910.00 1490.8890 1036.5621 34.6271 2.2566
1920.00 1491.0139 1036.6103 34.6281 2.2453
1930.00 1491.1437 1036.6582 34.6291 2.2351
1940.00 1491.2735 1036.7062 34.6300 2.2249
1950.00 1491.4033 1036.7541 34.6309 2.2148
1960.00 1491.5331 1036.8020 34.6319 2.2046
1970.00 1491.6630 1036.8499 34.6328 2.1944
1980.00 1491.7928 1036.8979 34.6337 2.1842
1990.00 1491.9226 1036.9458 34.6347 2.1740
2000.00 1492.0524 1036.9937 34.6356 2.1639
2010.00 1492.1822 1037.0416 34.6365 2.1537
2020.00 1492.3120 1037.0896 34.6374 2.1435
2030.00 1492.4418 1037.1375 34.6384 2.1333
2040.00 1492.5716 1037.1854 34.6393 2.1231
2050.00 1492.7014 1037.2333 34.6402 2.1130
2060.00 1492.8313 1037.2812 34.6412 2.1028
2070.00 1492.9611 1037.3292 34.6421 2.0926
2080.00 1493.0909 1037.3771 34.6430 2.0824
2090.00 1493.2257 1037.4247 34.6438 2.0733
2100.00 1493.3639 1037.4721 34.6445 2.0650
2110.00 1493.5022 1037.5196 34.6452 2.0566
2120.00 1493.6404 1037.5670 34.6459 2.0483
2130.00 1493.7786 1037.6144 34.6467 2.0399
2140.00 1493.9169 1037.6618 34.6474 2.0316
2150.00 1494.0551 1037.7092 34.6481 2.0232
2160.00 1494.1933 1037.7567 34.6488 2.0149
2170.00 1494.3316 1037.8041 34.6495 2.0065
2180.00 1494.4698 1037.8515 34.6502 1.9982
2190.00 1494.6080 1037.8989 34.6509 1.9898
2200.00 1494.7463 1037.9464 34.6516 1.9815
2210.00 1494.8845 1037.9938 34.6523 1.9731
2220.00 1495.0227 1038.0412 34.6530 1.9648
2230.00 1495.1609 1038.0886 34.6537 1.9564
2240.00 1495.2992 1038.1361 34.6544 1.9481
2250.00 1495.4374 1038.1835 34.6551 1.9397
2260.00 1495.5756 1038.2309 34.6559 1.9314
2270.00 1495.7139 1038.2783 34.6566 1.9230
2280.00 1495.8558 1038.3255 34.6572 1.9154
2290.00 1496.0040 1038.3724 34.6577 1.9092
2300.00 1496.1521 1038.4193 34.6582 1.9030
2310.00 1496.3003 1038.4662 34.6588 1.8967
2320.00 1496.4484 1038.5131 34.6593 1.8905
2330.00 1496.5966 1038.5600 34.6598 1.8842
2340.00 1496.7447 1038.6068 34.6603 1.8780
2350.00 1496.8928 1038.6537 34.6609 1.8718
2360.00 1497.0410 1038.7006 34.6614 1.8655
2370.00 1497.1891 1038.7475 34.6619 1.8593
2380.00 1497.3373 1038.7944 34.6624 1.8530
2390.00 1497.4854 1038.8413 34.6629 1.8468
2400.00 1497.6336 1038.8882 34.6635 1.8405
2410.00 1497.7817 1038.9350 34.6640 1.8343
2420.00 1497.9298 1038.9819 34.6645 1.8281
2430.00 1498.0780 1039.0288 34.6650 1.8218
2440.00 1498.2261 1039.0757 34.6656 1.8156
2450.00 1498.3743 1039.1226 34.6661 1.8093
2460.00 1498.5224 1039.1695 34.6666 1.8031
2470.00 1498.6706 1039.2163 34.6671 1.7969
2480.00 1498.8187 1039.2632 34.6677 1.7906
2490.00 1498.9668 1039.3101 34.6682 1.7844
2500.00 1499.1310 1039.3562 34.6684 1.7816
2510.00 1499.2974 1039.4021 34.6686 1.7794
2520.00 1499.4639 1039.4480 34.6688 1.7771
2530.00 1499.6303 1039.4939 34.6690 1.7749
2540.00 1499.7968 1039.5398 34.6692 1.7726
2550.00 1499.9632 1039.5857 34.6694 1.7704
2560.00 1500.1296 1039.6317 34.6696 1.7681
2570.00 1500.2961 1039.6776 34.6698 1.7659
2580.00 1500.4625 1039.7235 34.6700 1.7636
2590.00 1500.6290 1039.7694 34.6701 1.7614
2600.00 1500.7954 1039.8153 34.6703 1.7591
2610.00 1500.9618 1039.8613 34.6705 1.7569
2620.00 1501.1283 1039.9072 34.6707 1.7546
2630.00 1501.2947 1039.9531 34.6709 1.7524
2640.00 1501.4612 1039.9990 34.6711 1.7501
2650.00 1501.6276 1040.0449 34.6713 1.7479
2660.00 1501.7940 1040.0908 34.6715 1.7456
2670.00 1501.9605 1040.1368 34.6717 1.7434
2680.00 1502.1269 1040.1827 34.6719 1.7411
2690.00 1502.2934 1040.2286 34.6721 1.7389
2700.00 1502.4598 1040.2745 34.6723 1.7366
2710.00 1502.6262 1040.3204 34.6725 1.7344
2720.00 1502.7927 1040.3664 34.6727 1.7321
2730.00 1502.8042 1040.4194 34.6757 1.6946
2740.00 1502.9786 1040.4648 34.6758 1.6939
2750.00 1503.1530 1040.5102 34.6758 1.6932
2760.00 1503.3275 1040.5557 34.6759 1.6926
2770.00 1503.5019 1040.6011 34.6760 1.6919
2780.00 1503.6763 1040.6465 34.6761 1.6913
2790.00 1503.8507 1040.6919 34.6761 1.6906
2800.00 1504.0251 1040.7373 34.6762 1.6899
2810.00 1504.1995 1040.7827 34.6763 1.6893
2820.00 1504.3739 1040.8282 34.6763 1.6886
2830.00 1504.5483 1040.8736 34.6764 1.6879
2840.00 1504.7227 1040.9190 34.6765 1.6873
2850.00 1504.8972 1040.9644 34.6766 1.6866
2860.00 1505.0716 1041.0098 34.6766 1.6859
2870.00 1505.2460 1041.0552 34.6767 1.6853
2880.00 1505.4204 1041.1007 34.6768 1.6846
2890.00 1505.5948 1041.1461 34.6768 1.6839
2900.00 1505.7692 1041.1915 34.6769 1.6833
