# Averages over distance (i) for each depth (k):
# Depth(m) Speed(m/s) Density(kg/m^3) Salt PSU Theta(degC)
0.00 1511.9138 1024.9913 34.3033 16.9700
10.00 1511.9895 1025.0418 34.3018 16.9393
20.00 1511.9169 1025.1020 34.2981 16.8603
30.00 1511.4631 1025.1863 34.2882 16.6582
40.00 1510.5269 1025.3000 34.2709 16.3024
50.00 1509.1911 1025.4365 34.2481 15.8232
60.00 1507.6557 1025.5815 34.2224 15.2875
70.00 1506.1051 1025.7232 34.1967 14.7545
80.00 1504.6641 1025.8545 34.1718 14.2625
90.00 1503.3818 1025.9725 34.1474 13.8252
100.00 1502.2480 1026.0783 34.1227 13.4381
110.00 1501.2333 1026.1753 34.0985 13.0904
120.00 1500.2898 1026.2681 34.0764 12.7663
130.00 1499.3530 1026.3616 34.0573 12.4458
140.00 1498.3885 1026.4590 34.0424 12.1180
150.00 1497.4345 1026.5656 34.0414 11.7918
160.00 1496.5380 1026.6785 34.0529 11.4799
170.00 1495.6880 1026.7964 34.0745 11.1795
180.00 1494.9752 1026.9185 34.1113 10.9156
190.00 1494.3057 1027.0420 34.1530 10.6633
200.00 1493.7291 1027.1623 34.1974 10.4377
210.00 1493.2359 1027.2797 34.2442 10.2362
220.00 1492.7427 1027.3972 34.2911 10.0347
230.00 1492.3039 1027.5028 34.3282 9.8538
240.00 1491.8853 1027.6041 34.3618 9.6805
250.00 1491.4666 1027.7055 34.3953 9.5072
260.00 1491.0434 1027.8016 34.4228 9.3354
270.00 1490.6067 1027.8826 34.4328 9.1684
280.00 1490.1700 1027.9636 34.4427 9.0013
290.00 1489.7333 1028.0446 34.4526 8.8342
300.00 1489.2963 1028.1254 34.4624 8.6671
310.00 1488.8270 1028.1927 34.4561 8.5002
320.00 1488.3576 1028.2599 34.4499 8.3334
330.00 1487.8883 1028.3271 34.4436 8.1666
340.00 1487.4189 1028.3943 34.4373 7.9997
350.00 1486.9496 1028.4615 34.4310 7.8329
360.00 1486.5285 1028.5219 34.4208 7.6833
370.00 1486.1110 1028.5818 34.4103 7.5350
380.00 1485.6934 1028.6417 34.3998 7.3867
390.00 1485.2759 1028.7016 34.3893 7.2384
400.00 1484.8583 1028.7615 34.3788 7.0901
410.00 1484.4418 1028.8214 34.3683 6.9421
420.00 1484.1771 1028.8765 34.3605 6.8348
430.00 1483.9124 1028.9317 34.3527 6.7274
440.00 1483.6476 1028.9869 34.3448 6.6201
450.00 1483.3829 1029.0420 34.3370 6.5128
460.00 1483.1182 1029.0972 34.3291 6.4054
470.00 1482.8535 1029.1524 34.3213 6.2981
480.00 1482.6255 1029.2070 34.3146 6.2000
490.00 1482.5063 1029.2601 34.3111 6.1293
500.00 1482.3870 1029.3132 34.3076 6.0586
510.00 1482.2678 1029.3663 34.3041 5.9879
520.00 1482.1485 1029.4194 34.3006 5.9172
530.00 1482.0292 1029.4725 34.2972 5.8465
540.00 1481.9100 1029.5256 34.2937 5.7758
550.00 1481.7907 1029.5787 34.2902 5.7051
560.00 1481.7264 1029.6318 34.2891 5.6478
570.00 1481.6824 1029.6848 34.2889 5.5954
580.00 1481.6384 1029.7378 34.2887 5.5431
590.00 1481.5945 1029.7909 34.2885 5.4907
600.00 1481.5505 1029.8439 34.2883 5.4384
610.00 1481.5065 1029.8969 34.2881 5.3860
620.00 1481.4626 1029.9500 34.2879 5.3337
630.00 1481.4186 1030.0030 34.2878 5.2813
640.00 1481.3869 1030.0565 34.2886 5.2319
650.00 1481.3663 1030.1103 34.2905 5.1851
660.00 1481.3457 1030.1641 34.2923 5.1383
670.00 1481.3251 1030.2180 34.2942 5.0915
680.00 1481.3044 1030.2718 34.2960 5.0447
690.00 1481.2838 1030.3256 34.2979 4.9979
700.00 1481.2632 1030.3794 34.2997 4.9511
710.00 1481.2426 1030.4333 34.3016 4.9043
720.00 1481.2220 1030.4871 34.3034 4.8575
730.00 1481.2080 1030.5415 34.3064 4.8123
740.00 1481.1962 1030.5962 34.3097 4.7676
750.00 1481.1844 1030.6509 34.3131 4.7229
760.00 1481.1726 1030.7055 34.3164 4.6782
770.00 1481.1608 1030.7602 34.3197 4.6335
780.00 1481.1490 1030.8148 34.3230 4.5888
790.00 1481.1372 1030.8695 34.3264 4.5441
800.00 1481.1254 1030.9241 34.3297 4.4994
810.00 1481.1136 1030.9788 34.3330 4.4547
820.00 1481.1118 1031.0336 34.3370 4.4125
830.00 1481.1181 1031.0885 34.3414 4.3721
840.00 1481.1243 1031.1435 34.3459 4.3318
850.00 1481.1306 1031.1984 34.3503 4.2914
860.00 1481.1369 1031.2533 34.3548 4.2511
870.00 1481.1431 1031.3083 34.3592 4.2107
880.00 1481.1494 1031.3632 34.3637 4.1704
890.00 1481.1557 1031.4181 34.3681 4.1300
900.00 1481.1619 1031.4731 34.3726 4.0897
910.00 1481.1690 1031.5280 34.3771 4.0495
920.00 1481.2070 1031.5822 34.3819 4.0169
930.00 1481.2451 1031.6364 34.3867 3.9842
940.00 1481.2831 1031.6906 34.3915 3.9516
950.00 1481.3212 1031.7448 34.3963 3.9190
960.00 1481.3592 1031.7990 34.4011 3.8863
970.00 1481.3973 1031.8532 34.4059 3.8537
980.00 1481.4353 1031.9074 34.4107 3.8210
990.00 1481.4734 1031.9615 34.4155 3.7884
1000.00 1481.5114 1032.0157 34.4203 3.7557
1010.00 1481.5576 1032.0696 34.4250 3.7251
1020.00 1481.6242 1032.1224 34.4293 3.6995
1030.00 1481.6909 1032.1753 34.4336 3.6739
1040.00 1481.7575 1032.2282 34.4378 3.6483
1050.00 1481.8242 1032.2811 34.4421 3.6227
1060.00 1481.8909 1032.3339 34.4464 3.5971
1070.00 1481.9575 1032.3868 34.4507 3.5715
1080.00 1482.0242 1032.4397 34.4550 3.5459
1090.00 1482.0908 1032.4926 34.4593 3.5203
1100.00 1482.1575 1032.5454 34.4636 3.4948
1110.00 1482.2304 1032.5978 34.4676 3.4708
1120.00 1482.3125 1032.6495 34.4710 3.4491
1130.00 1482.3946 1032.7012 34.4745 3.4274
1140.00 1482.4767 1032.7529 34.4780 3.4058
1150.00 1482.5588 1032.8046 34.4814 3.3841
1160.00 1482.6409 1032.8563 34.4849 3.3625
1170.00 1482.7230 1032.9080 34.4884 3.3408
1180.00 1482.8051 1032.9597 34.4919 3.3192
1190.00 1482.8872 1033.0114 34.4953 3.2975
1200.00 1482.9692 1033.0631 34.4988 3.2758
1210.00 1483.0547 1033.1145 34.5020 3.2551
1220.00 1483.1443 1033.1653 34.5047 3.2354
1230.00 1483.2338 1033.2162 34.5075 3.2157
1240.00 1483.3234 1033.2670 34.5103 3.1961
1250.00 1483.4130 1033.3179 34.5130 3.1764
1260.00 1483.5026 1033.3688 34.5158 3.1567
1270.00 1483.5922 1033.4196 34.5186 3.1371
1280.00 1483.6818 1033.4705 34.5213 3.1174
1290.00 1483.7713 1033.5214 34.5241 3.0977
1300.00 1483.8609 1033.5722 34.5268 3.0781
1310.00 1483.9523 1033.6229 34.5294 3.0589
1320.00 1484.0467 1033.6732 34.5317 3.0405
1330.00 1484.1410 1033.7235 34.5340 3.0220
1340.00 1484.2353 1033.7738 34.5363 3.0036
1350.00 1484.3297 1033.8241 34.5386 2.9852
1360.00 1484.4240 1033.8744 34.5409 2.9668
1370.00 1484.5184 1033.9247 34.5432 2.9484
1380.00 1484.6127 1033.9750 34.5454 2.9300
1390.00 1484.7071 1034.0252 34.5477 2.9116
1400.00 1484.8014 1034.0755 34.5500 2.8932
1410.00 1484.8961 1034.1258 34.5523 2.8749
1420.00 1484.9946 1034.1757 34.5542 2.8575
1430.00 1485.0932 1034.2256 34.5562 2.8402
1440.00 1485.1917 1034.2754 34.5582 2.8228
1450.00 1485.2902 1034.3253 34.5601 2.8055
1460.00 1485.3888 1034.3752 34.5621 2.7881
1470.00 1485.4873 1034.4251 34.5640 2.7708
1480.00 1485.5858 1034.4749 34.5660 2.7534
1490.00 1485.6843 1034.5248 34.5680 2.7361
1500.00 1485.7829 1034.5747 34.5699 2.7187
1510.00 1485.8814 1034.6246 34.5719 2.7014
1520.00 1485.9814 1034.6743 34.5738 2.6844
1530.00 1486.0850 1034.7238 34.5755 2.6683
1540.00 1486.1886 1034.7732 34.5772 2.6521
1550.00 1486.2922 1034.8227 34.5788 2.6360
1560.00 1486.3958 1034.8722 34.5805 2.6199
1570.00 1486.4994 1034.9216 34.5822 2.6038
1580.00 1486.6030 1034.9711 34.5839 2.5877
1590.00 1486.7066 1035.0205 34.5856 2.5715
1600.00 1486.8102 1035.0700 34.5873 2.5554
1610.00 1486.9138 1035.1195 34.5890 2.5393
1620.00 1487.0174 1035.1689 34.5907 2.5232
1630.00 1487.1210 1035.2184 34.5924 2.5071
1640.00 1487.2289 1035.2676 34.5939 2.4919
1650.00 1487.3399 1035.3166 34.5953 2.4775
1660.00 1487.4508 1035.3656 34.5968 2.4631
1670.00 1487.5618 1035.4146 34.5982 2.4487
1680.00 1487.6727 1035.4636 34.5996 2.4343
1690.00 1487.7837 1035.5125 34.6010 2.4199
1700.00 1487.8947 1035.5615 34.6025 2.4055
1710.00 1488.0056 1035.6105 34.6039 2.3911
1720.00 1488.1166 1035.6595 34.6053 2.3767
1730.00 1488.2275 1035.7085 34.6067 2.3623
1740.00 1488.3385 1035.7575 34.6082 2.3479
1750.00 1488.4495 1035.8065 34.6096 2.3335
1760.00 1488.5604 1035.8555 34.6110 2.3191
1770.00 1488.6760 1035.9042 34.6123 2.3057
1780.00 1488.7965 1035.9527 34.6135 2.2935
1790.00 1488.9170 1036.0012 34.6146 2.2813
1800.00 1489.0375 1036.0496 34.6158 2.2691
1810.00 1489.1580 1036.0981 34.6169 2.2568
1820.00 1489.2785 1036.1465 34.6181 2.2446
1830.00 1489.3990 1036.1950 34.6193 2.2324
1840.00 1489.5195 1036.2435 34.6204 2.2201
1850.00 1489.6400 1036.2919 34.6216 2.2079
1860.00 1489.7605 1036.3404 34.6228 2.1957
1870.00 1489.8810 1036.3888 34.6239 2.1835
1880.00 1490.0015 1036.4373 34.6251 2.1712
1890.00 1490.1220 1036.4858 34.6262 2.1590
1900.00 1490.2425 1036.5342 34.6274 2.1468
1910.00 1490.3630 1036.5827 34.6286 2.1345
1920.00 1490.4898 1036.6308 34.6296 2.1237
1930.00 1490.6211 1036.6787 34.6305 2.1139
1940.00 1490.7524 1036.7266 34.6314 2.1041
1950.00 1490.8836 1036.7745 34.6323 2.0942
1960.00 1491.0149 1036.8224 34.6332 2.0844
1970.00 1491.1462 1036.8703 34.6342 2.0746
1980.00 1491.2774 1036.9181 34.6351 2.0647
1990.00 1491.4087 1036.9660 34.6360 2.0549
2000.00 1491.5400 1037.0139 34.6369 2.0451
2010.00 1491.6712 1037.0618 34.6378 2.0353
2020.00 1491.8025 1037.1097 34.6388 2.0254
2030.00 1491.9338 1037.1576 34.6397 2.0156
2040.00 1492.0651 1037.2055 34.6406 2.0058
2050.00 1492.1963 1037.2534 34.6415 1.9959
2060.00 1492.3276 1037.3013 34.6424 1.9861
2070.00 1492.4589 1037.3492 34.6433 1.9763
2080.00 1492.5901 1037.3971 34.6443 1.9665
2090.00 1492.7277 1037.4446 34.6451 1.9580
2100.00 1492.8695 1037.4920 34.6458 1.9505
2110.00 1493.0113 1037.5393 34.6465 1.9429
2120.00 1493.1531 1037.5866 34.6472 1.9354
2130.00 1493.2950 1037.6340 34.6479 1.9278
2140.00 1493.4368 1037.6813 34.6486 1.9203
2150.00 1493.5786 1037.7287 34.6493 1.9128
2160.00 1493.7204 1037.7760 34.6500 1.9052
2170.00 1493.8622 1037.8233 34.6507 1.8977
2180.00 1494.0040 1037.8707 34.6514 1.8902
2190.00 1494.1458 1037.9180 34.6521 1.8826
2200.00 1494.2876 1037.9654 34.6528 1.8751
2210.00 1494.4295 1038.0127 34.6536 1.8675
2220.00 1494.5713 1038.0600 34.6543 1.8600
2230.00 1494.7131 1038.1074 34.6550 1.8525
2240.00 1494.8549 1038.1547 34.6557 1.8449
2250.00 1494.9967 1038.2021 34.6564 1.8374
2260.00 1495.1385 1038.2494 34.6571 1.8299
2270.00 1495.2803 1038.2967 34.6578 1.8223
2280.00 1495.4257 1038.3439 34.6584 1.8155
2290.00 1495.5770 1038.3907 34.6590 1.8100
2300.00 1495.7282 1038.4375 34.6595 1.8045
2310.00 1495.8795 1038.4843 34.6600 1.7989
2320.00 1496.0308 1038.5312 34.6606 1.7934
2330.00 1496.1820 1038.5780 34.6611 1.7878
2340.00 1496.3333 1038.6248 34.6616 1.7823
2350.00 1496.4846 1038.6716 34.6621 1.7767
2360.00 1496.6358 1038.7184 34.6627 1.7712
2370.00 1496.7871 1038.7653 34.6632 1.7656
2380.00 1496.9384 1038.8121 34.6637 1.7601
2390.00 1497.0896 1038.8589 34.6643 1.7546
2400.00 1497.2409 1038.9057 34.6648 1.7490
2410.00 1497.3922 1038.9525 34.6653 1.7435
2420.00 1497.5434 1038.9994 34.6659 1.7379
2430.00 1497.6947 1039.0462 34.6664 1.7324
2440.00 1497.8459 1039.0930 34.6669 1.7268
2450.00 1497.9972 1039.1398 34.6674 1.7213
2460.00 1498.1485 1039.1866 34.6680 1.7158
2470.00 1498.2997 1039.2335 34.6685 1.7102
2480.00 1498.4510 1039.2803 34.6690 1.7047
2490.00 1498.6023 1039.3271 34.6696 1.6991
2500.00 1498.7600 1039.3735 34.6700 1.6949
2510.00 1498.9186 1039.4199 34.6704 1.6908
2520.00 1499.0772 1039.4663 34.6707 1.6867
2530.00 1499.2358 1039.5126 34.6711 1.6827
2540.00 1499.3944 1039.5590 34.6715 1.6786
2550.00 1499.5530 1039.6054 34.6719 1.6745
2560.00 1499.7116 1039.6517 34.6723 1.6705
2570.00 1499.8702 1039.6981 34.6727 1.6664
2580.00 1500.0288 1039.7445 34.6731 1.6623
2590.00 1500.1874 1039.7908 34.6735 1.6582
2600.00 1500.3460 1039.8372 34.6738 1.6542
2610.00 1500.5046 1039.8836 34.6742 1.6501
2620.00 1500.6632 1039.9299 34.6746 1.6460
2630.00 1500.8219 1039.9763 34.6750 1.6420
2640.00 1500.9805 1040.0227 34.6754 1.6379
2650.00 1501.1391 1040.0690 34.6758 1.6338
2660.00 1501.2977 1040.1154 34.6762 1.6298
2670.00 1501.4563 1040.1618 34.6766 1.6257
2680.00 1501.6149 1040.2081 34.6769 1.6216
2690.00 1501.7735 1040.2545 34.6773 1.6176
2700.00 1501.9321 1040.3009 34.6777 1.6135
2710.00 1502.0907 1040.3472 34.6781 1.6094
2720.00 1502.2493 1040.3936 34.6785 1.6053
2730.00 1502.4084 1040.4399 34.6789 1.6014
2740.00 1502.5728 1040.4859 34.6791 1.5984
2750.00 1502.7372 1040.5319 34.6794 1.5954
2760.00 1502.9016 1040.5778 34.6797 1.5925
2770.00 1503.0661 1040.6238 34.6800 1.5895
2780.00 1503.2305 1040.6697 34.6802 1.5865
2790.00 1503.3949 1040.7157 34.6805 1.5835
2800.00 1503.5593 1040.7616 34.6808 1.5806
2810.00 1503.7238 1040.8076 34.6810 1.5776
2820.00 1503.8882 1040.8536 34.6813 1.5746
2830.00 1504.0526 1040.8995 34.6816 1.5717
2840.00 1504.2170 1040.9455 34.6818 1.5687
2850.00 1504.3815 1040.9914 34.6821 1.5657
2860.00 1504.5459 1041.0374 34.6824 1.5628
2870.00 1504.7103 1041.0833 34.6827 1.5598
2880.00 1504.8748 1041.1293 34.6829 1.5568
2890.00 1505.0392 1041.1753 34.6832 1.5539
