# Averages over distance (i) for each depth (k):
# Depth(m) Speed(m/s) Density(kg/m^3) Salt PSU Theta(degC)
0.00 1511.3599 1025.0083 34.2729 16.7986
10.00 1511.4346 1025.0588 34.2714 16.7677
20.00 1511.3615 1025.1190 34.2678 16.6889
30.00 1510.9077 1025.2032 34.2584 16.4876
40.00 1509.9692 1025.3171 34.2422 16.1323
50.00 1508.6236 1025.4543 34.2209 15.6515
60.00 1507.0688 1025.6006 34.1969 15.1115
70.00 1505.4904 1025.7441 34.1726 14.5717
80.00 1504.0164 1025.8773 34.1490 14.0715
90.00 1502.6984 1025.9971 34.1255 13.6252
100.00 1501.5342 1026.1044 34.1017 13.2306
110.00 1500.5142 1026.2020 34.0792 12.8826
120.00 1499.6002 1026.2942 34.0594 12.5680
130.00 1498.7154 1026.3864 34.0433 12.2633
140.00 1497.8099 1026.4824 34.0317 11.9530
150.00 1496.9016 1026.5889 34.0344 11.6399
160.00 1496.0401 1026.7026 34.0498 11.3379
170.00 1495.2167 1026.8219 34.0754 11.0447
180.00 1494.5255 1026.9454 34.1157 10.7866
190.00 1493.8760 1027.0701 34.1606 10.5395
200.00 1493.3225 1027.1905 34.2069 10.3205
210.00 1492.8553 1027.3069 34.2543 10.1266
220.00 1492.3881 1027.4232 34.3018 9.9327
230.00 1491.9776 1027.5265 34.3379 9.7603
240.00 1491.5881 1027.6250 34.3699 9.5959
250.00 1491.1986 1027.7234 34.4018 9.4315
260.00 1490.8021 1027.8169 34.4278 9.2680
270.00 1490.3848 1027.8956 34.4362 9.1069
280.00 1489.9675 1027.9744 34.4447 8.9458
290.00 1489.5503 1028.0531 34.4531 8.7847
300.00 1489.1326 1028.1318 34.4614 8.6236
310.00 1488.6679 1028.1983 34.4547 8.4583
320.00 1488.2031 1028.2648 34.4479 8.2930
330.00 1487.7384 1028.3313 34.4411 8.1277
340.00 1487.2736 1028.3978 34.4343 7.9624
350.00 1486.8089 1028.4643 34.4275 7.7971
360.00 1486.3907 1028.5244 34.4172 7.6485
370.00 1485.9760 1028.5841 34.4067 7.5011
380.00 1485.5613 1028.6438 34.3961 7.3536
390.00 1485.1466 1028.7035 34.3856 7.2062
400.00 1484.7318 1028.7632 34.3750 7.0588
410.00 1484.3182 1028.8228 34.3645 6.9117
420.00 1484.0582 1028.8779 34.3568 6.8055
430.00 1483.7982 1028.9330 34.3490 6.6994
440.00 1483.5381 1028.9880 34.3413 6.5933
450.00 1483.2781 1029.0431 34.3336 6.4872
460.00 1483.0181 1029.0981 34.3259 6.3811
470.00 1482.7581 1029.1532 34.3181 6.2750
480.00 1482.5346 1029.2077 34.3115 6.1781
490.00 1482.4191 1029.2608 34.3081 6.1083
500.00 1482.3036 1029.3138 34.3047 6.0386
510.00 1482.1881 1029.3669 34.3014 5.9688
520.00 1482.0726 1029.4199 34.2980 5.8990
530.00 1481.9570 1029.4730 34.2946 5.8293
540.00 1481.8415 1029.5260 34.2913 5.7595
550.00 1481.7260 1029.5790 34.2879 5.6897
560.00 1481.6640 1029.6321 34.2869 5.6330
570.00 1481.6219 1029.6851 34.2867 5.5811
580.00 1481.5798 1029.7381 34.2866 5.5292
590.00 1481.5377 1029.7911 34.2864 5.4773
600.00 1481.4956 1029.8441 34.2863 5.4254
610.00 1481.4535 1029.8971 34.2862 5.3735
620.00 1481.4113 1029.9501 34.2860 5.3216
630.00 1481.3692 1030.0031 34.2859 5.2697
640.00 1481.3389 1030.0566 34.2868 5.2206
650.00 1481.3192 1030.1104 34.2886 5.1741
660.00 1481.2995 1030.1642 34.2905 5.1275
670.00 1481.2799 1030.2179 34.2923 5.0810
680.00 1481.2602 1030.2717 34.2942 5.0344
690.00 1481.2405 1030.3255 34.2960 4.9879
700.00 1481.2208 1030.3793 34.2978 4.9413
710.00 1481.2011 1030.4331 34.2997 4.8948
720.00 1481.1814 1030.4869 34.3015 4.8482
730.00 1481.1683 1030.5413 34.3045 4.8032
740.00 1481.1573 1030.5959 34.3077 4.7588
750.00 1481.1464 1030.6505 34.3110 4.7143
760.00 1481.1354 1030.7051 34.3143 4.6698
770.00 1481.1244 1030.7597 34.3176 4.6253
780.00 1481.1134 1030.8142 34.3209 4.5809
790.00 1481.1025 1030.8688 34.3241 4.5364
800.00 1481.0915 1030.9234 34.3274 4.4919
810.00 1481.0805 1030.9780 34.3307 4.4474
820.00 1481.0790 1031.0328 34.3346 4.4052
830.00 1481.0851 1031.0877 34.3390 4.3649
840.00 1481.0913 1031.1426 34.3434 4.3245
850.00 1481.0974 1031.1975 34.3478 4.2842
860.00 1481.1036 1031.2524 34.3522 4.2438
870.00 1481.1097 1031.3073 34.3566 4.2035
880.00 1481.1158 1031.3622 34.3610 4.1631
890.00 1481.1220 1031.4171 34.3655 4.1227
900.00 1481.1281 1031.4720 34.3699 4.0824
910.00 1481.1351 1031.5268 34.3743 4.0422
920.00 1481.1723 1031.5811 34.3791 4.0094
930.00 1481.2095 1031.6353 34.3839 3.9766
940.00 1481.2468 1031.6895 34.3887 3.9437
950.00 1481.2840 1031.7437 34.3935 3.9109
960.00 1481.3212 1031.7980 34.3984 3.8781
970.00 1481.3584 1031.8522 34.4032 3.8452
980.00 1481.3957 1031.9064 34.4080 3.8124
990.00 1481.4329 1031.9606 34.4128 3.7796
1000.00 1481.4701 1032.0149 34.4176 3.7467
1010.00 1481.5157 1032.0687 34.4223 3.7160
1020.00 1481.5824 1032.1216 34.4266 3.6904
1030.00 1481.6491 1032.1746 34.4310 3.6648
1040.00 1481.7158 1032.2275 34.4353 3.6392
1050.00 1481.7825 1032.2804 34.4397 3.6136
1060.00 1481.8492 1032.3333 34.4440 3.5880
1070.00 1481.9159 1032.3863 34.4484 3.5624
1080.00 1481.9826 1032.4392 34.4527 3.5368
1090.00 1482.0493 1032.4921 34.4571 3.5112
1100.00 1482.1160 1032.5450 34.4614 3.4856
1110.00 1482.1894 1032.5975 34.4655 3.4617
1120.00 1482.2724 1032.6492 34.4690 3.4402
1130.00 1482.3555 1032.7009 34.4725 3.4188
1140.00 1482.4386 1032.7526 34.4761 3.3973
1150.00 1482.5217 1032.8044 34.4796 3.3759
1160.00 1482.6048 1032.8561 34.4832 3.3544
1170.00 1482.6879 1032.9078 34.4867 3.3330
1180.00 1482.7710 1032.9596 34.4902 3.3116
1190.00 1482.8541 1033.0113 34.4938 3.2901
1200.00 1482.9372 1033.0630 34.4973 3.2687
1210.00 1483.0236 1033.1144 34.5005 3.2481
1220.00 1483.1143 1033.1653 34.5034 3.2287
1230.00 1483.2050 1033.2161 34.5062 3.2093
1240.00 1483.2956 1033.2670 34.5090 3.1898
1250.00 1483.3863 1033.3179 34.5118 3.1704
1260.00 1483.4770 1033.3688 34.5146 3.1510
1270.00 1483.5676 1033.4197 34.5175 3.1315
1280.00 1483.6583 1033.4705 34.5203 3.1121
1290.00 1483.7490 1033.5214 34.5231 3.0927
1300.00 1483.8396 1033.5723 34.5259 3.0732
1310.00 1483.9320 1033.6229 34.5286 3.0543
1320.00 1484.0272 1033.6733 34.5309 3.0360
1330.00 1484.1223 1033.7236 34.5332 3.0178
1340.00 1484.2174 1033.7739 34.5355 2.9996
1350.00 1484.3126 1033.8242 34.5378 2.9813
1360.00 1484.4077 1033.8745 34.5402 2.9631
1370.00 1484.5029 1033.9248 34.5425 2.9449
1380.00 1484.5980 1033.9751 34.5448 2.9266
1390.00 1484.6932 1034.0254 34.5471 2.9084
1400.00 1484.7883 1034.0757 34.5494 2.8902
1410.00 1484.8838 1034.1260 34.5517 2.8720
1420.00 1484.9828 1034.1758 34.5537 2.8548
1430.00 1485.0819 1034.2257 34.5557 2.8375
1440.00 1485.1809 1034.2756 34.5577 2.8203
1450.00 1485.2800 1034.3255 34.5597 2.8031
1460.00 1485.3791 1034.3753 34.5616 2.7858
1470.00 1485.4781 1034.4252 34.5636 2.7686
1480.00 1485.5772 1034.4751 34.5656 2.7514
1490.00 1485.6762 1034.5250 34.5676 2.7341
1500.00 1485.7753 1034.5748 34.5696 2.7169
1510.00 1485.8743 1034.6247 34.5715 2.6997
1520.00 1485.9748 1034.6745 34.5734 2.6828
1530.00 1486.0787 1034.7239 34.5751 2.6667
1540.00 1486.1826 1034.7734 34.5769 2.6507
1550.00 1486.2866 1034.8229 34.5786 2.6346
1560.00 1486.3905 1034.8723 34.5803 2.6186
1570.00 1486.4944 1034.9218 34.5820 2.6025
1580.00 1486.5983 1034.9713 34.5837 2.5865
1590.00 1486.7023 1035.0207 34.5854 2.5704
1600.00 1486.8062 1035.0702 34.5871 2.5544
1610.00 1486.9101 1035.1196 34.5888 2.5383
1620.00 1487.0140 1035.1691 34.5905 2.5223
1630.00 1487.1180 1035.2186 34.5922 2.5062
1640.00 1487.2261 1035.2678 34.5937 2.4911
1650.00 1487.3372 1035.3168 34.5951 2.4768
1660.00 1487.4484 1035.3658 34.5966 2.4624
1670.00 1487.5595 1035.4147 34.5980 2.4480
1680.00 1487.6707 1035.4637 34.5994 2.4337
1690.00 1487.7818 1035.5127 34.6009 2.4193
1700.00 1487.8929 1035.5617 34.6023 2.4049
1710.00 1488.0041 1035.6107 34.6037 2.3906
1720.00 1488.1152 1035.6597 34.6052 2.3762
1730.00 1488.2264 1035.7087 34.6066 2.3619
1740.00 1488.3375 1035.7577 34.6080 2.3475
1750.00 1488.4487 1035.8067 34.6095 2.3331
1760.00 1488.5598 1035.8557 34.6109 2.3188
1770.00 1488.6756 1035.9045 34.6122 2.3054
1780.00 1488.7962 1035.9529 34.6134 2.2932
1790.00 1488.9168 1036.0014 34.6145 2.2810
1800.00 1489.0374 1036.0498 34.6157 2.2688
1810.00 1489.1580 1036.0983 34.6168 2.2566
1820.00 1489.2786 1036.1468 34.6180 2.2444
1830.00 1489.3993 1036.1952 34.6192 2.2322
1840.00 1489.5199 1036.2437 34.6203 2.2200
1850.00 1489.6405 1036.2921 34.6215 2.2078
1860.00 1489.7611 1036.3406 34.6227 2.1956
1870.00 1489.8817 1036.3891 34.6238 2.1834
1880.00 1490.0023 1036.4375 34.6250 2.1712
1890.00 1490.1230 1036.4860 34.6262 2.1590
1900.00 1490.2436 1036.5344 34.6273 2.1468
1910.00 1490.3642 1036.5829 34.6285 2.1346
1920.00 1490.4911 1036.6310 34.6295 2.1238
1930.00 1490.6224 1036.6789 34.6304 2.1139
1940.00 1490.7537 1036.7268 34.6314 2.1041
1950.00 1490.8850 1036.7747 34.6323 2.0943
1960.00 1491.0163 1036.8226 34.6332 2.0845
1970.00 1491.1477 1036.8705 34.6341 2.0747
1980.00 1491.2790 1036.9184 34.6350 2.0649
1990.00 1491.4103 1036.9663 34.6360 2.0550
2000.00 1491.5416 1037.0142 34.6369 2.0452
2010.00 1491.6730 1037.0621 34.6378 2.0354
2020.00 1491.8043 1037.1100 34.6387 2.0256
2030.00 1491.9356 1037.1579 34.6396 2.0158
2040.00 1492.0669 1037.2058 34.6406 2.0059
2050.00 1492.1982 1037.2536 34.6415 1.9961
2060.00 1492.3296 1037.3015 34.6424 1.9863
2070.00 1492.4609 1037.3494 34.6433 1.9765
2080.00 1492.5922 1037.3973 34.6442 1.9667
2090.00 1492.7298 1037.4449 34.6450 1.9582
2100.00 1492.8717 1037.4922 34.6457 1.9507
2110.00 1493.0136 1037.5396 34.6464 1.9432
2120.00 1493.1554 1037.5869 34.6472 1.9356
2130.00 1493.2973 1037.6343 34.6479 1.9281
2140.00 1493.4392 1037.6816 34.6486 1.9206
2150.00 1493.5811 1037.7289 34.6493 1.9131
2160.00 1493.7229 1037.7763 34.6500 1.9055
2170.00 1493.8648 1037.8236 34.6507 1.8980
2180.00 1494.0067 1037.8710 34.6514 1.8905
2190.00 1494.1486 1037.9183 34.6521 1.8830
2200.00 1494.2904 1037.9656 34.6528 1.8754
2210.00 1494.4323 1038.0130 34.6535 1.8679
2220.00 1494.5742 1038.0603 34.6542 1.8604
2230.00 1494.7161 1038.1077 34.6550 1.8529
2240.00 1494.8579 1038.1550 34.6557 1.8453
2250.00 1494.9998 1038.2023 34.6564 1.8378
2260.00 1495.1417 1038.2497 34.6571 1.8303
2270.00 1495.2836 1038.2970 34.6578 1.8228
2280.00 1495.4290 1038.3442 34.6584 1.8160
2290.00 1495.5802 1038.3910 34.6590 1.8104
2300.00 1495.7315 1038.4378 34.6595 1.8049
2310.00 1495.8827 1038.4846 34.6600 1.7993
2320.00 1496.0340 1038.5315 34.6606 1.7938
2330.00 1496.1852 1038.5783 34.6611 1.7882
2340.00 1496.3364 1038.6251 34.6616 1.7827
2350.00 1496.4877 1038.6719 34.6621 1.7771
2360.00 1496.6389 1038.7187 34.6627 1.7716
2370.00 1496.7902 1038.7656 34.6632 1.7660
2380.00 1496.9414 1038.8124 34.6637 1.7605
2390.00 1497.0927 1038.8592 34.6643 1.7549
2400.00 1497.2439 1038.9060 34.6648 1.7494
2410.00 1497.3952 1038.9529 34.6653 1.7438
2420.00 1497.5464 1038.9997 34.6659 1.7383
2430.00 1497.6976 1039.0465 34.6664 1.7327
2440.00 1497.8489 1039.0933 34.6669 1.7272
2450.00 1498.0001 1039.1402 34.6675 1.7216
2460.00 1498.1514 1039.1870 34.6680 1.7161
2470.00 1498.3026 1039.2338 34.6685 1.7105
2480.00 1498.4539 1039.2806 34.6690 1.7050
2490.00 1498.6051 1039.3274 34.6696 1.6994
2500.00 1498.7628 1039.3739 34.6700 1.6952
2510.00 1498.9215 1039.4202 34.6704 1.6911
2520.00 1499.0801 1039.4666 34.6708 1.6870
2530.00 1499.2388 1039.5130 34.6711 1.6830
2540.00 1499.3974 1039.5593 34.6715 1.6789
2550.00 1499.5561 1039.6057 34.6719 1.6749
2560.00 1499.7147 1039.6521 34.6723 1.6708
2570.00 1499.8734 1039.6984 34.6727 1.6667
2580.00 1500.0320 1039.7448 34.6731 1.6627
2590.00 1500.1906 1039.7912 34.6735 1.6586
2600.00 1500.3493 1039.8375 34.6739 1.6546
2610.00 1500.5079 1039.8839 34.6742 1.6505
2620.00 1500.6666 1039.9303 34.6746 1.6464
2630.00 1500.8252 1039.9766 34.6750 1.6424
2640.00 1500.9839 1040.0230 34.6754 1.6383
2650.00 1501.1425 1040.0694 34.6758 1.6342
2660.00 1501.3012 1040.1157 34.6762 1.6302
2670.00 1501.4598 1040.1621 34.6766 1.6261
2680.00 1501.6185 1040.2085 34.6770 1.6221
2690.00 1501.7771 1040.2549 34.6773 1.6180
2700.00 1501.9358 1040.3012 34.6777 1.6139
2710.00 1502.0944 1040.3476 34.6781 1.6099
2720.00 1502.2530 1040.3940 34.6785 1.6058
2730.00 1502.4121 1040.4403 34.6789 1.6018
2740.00 1502.5764 1040.4863 34.6792 1.5988
2750.00 1502.7408 1040.5322 34.6794 1.5959
2760.00 1502.9051 1040.5782 34.6797 1.5929
2770.00 1503.0694 1040.6241 34.6800 1.5899
2780.00 1503.2338 1040.6701 34.6802 1.5869
2790.00 1503.3981 1040.7161 34.6805 1.5839
2800.00 1503.5624 1040.7620 34.6808 1.5809
2810.00 1503.7268 1040.8080 34.6811 1.5779
2820.00 1503.8911 1040.8540 34.6813 1.5749
2830.00 1504.0554 1040.8999 34.6816 1.5719
2840.00 1504.2197 1040.9459 34.6819 1.5689
2850.00 1504.3841 1040.9919 34.6822 1.5659
2860.00 1504.5484 1041.0378 34.6824 1.5629
2870.00 1504.7127 1041.0838 34.6827 1.5599
2880.00 1504.8771 1041.1297 34.6830 1.5569
2890.00 1505.0414 1041.1757 34.6832 1.5539
2900.00 1505.2057 1041.2217 34.6835 1.5510
2910.00 1505.3701 1041.2676 34.6838 1.5480
2920.00 1505.5344 1041.3136 34.6841 1.5450
2930.00 1505.6987 1041.3596 34.6843 1.5420
2940.00 1505.8630 1041.4055 34.6846 1.5390
2950.00 1506.0274 1041.4515 34.6849 1.5360
2960.00 1506.1917 1041.4975 34.6852 1.5330
2970.00 1506.3560 1041.5434 34.6854 1.5300
2980.00 1506.5204 1041.5894 34.6857 1.5270
2990.00 1506.6847 1041.6353 34.6860 1.5240
3000.00 1506.8530 1041.6810 34.6862 1.5217
3010.00 1507.0213 1041.7266 34.6864 1.5194
3020.00 1507.1897 1041.7722 34.6866 1.5170
3030.00 1507.3581 1041.8178 34.6868 1.5147
3040.00 1507.5264 1041.8635 34.6870 1.5124
3050.00 1507.6948 1041.9091 34.6872 1.5101
3060.00 1507.8632 1041.9547 34.6874 1.5077
3070.00 1508.0316 1042.0003 34.6876 1.5054
3080.00 1508.1999 1042.0459 34.6878 1.5031
3090.00 1508.3683 1042.0916 34.6880 1.5008
3100.00 1508.5367 1042.1372 34.6882 1.4984
3110.00 1508.7050 1042.1828 34.6883 1.4961
3120.00 1508.8734 1042.2284 34.6885 1.4938
3130.00 1509.0418 1042.2741 34.6887 1.4915
3140.00 1509.2102 1042.3197 34.6889 1.4891
3150.00 1509.3785 1042.3653 34.6891 1.4868
3160.00 1509.5469 1042.4109 34.6893 1.4845
3170.00 1509.7153 1042.4565 34.6895 1.4822
3180.00 1509.8836 1042.5022 34.6897 1.4798
3190.00 1510.0520 1042.5478 34.6899 1.4775
3200.00 1510.2204 1042.5934 34.6901 1.4752
3210.00 1510.3888 1042.6390 34.6903 1.4729
3220.00 1510.5571 1042.6846 34.6905 1.4705
3230.00 1510.7255 1042.7303 34.6907 1.4682
3240.00 1510.8939 1042.7759 34.6909 1.4659
3250.00 1511.0622 1042.8215 34.6911 1.4636
3260.00 1511.2306 1042.8671 34.6913 1.4613
3270.00 1511.3990 1042.9128 34.6915 1.4589
3280.00 1511.5694 1042.9582 34.6917 1.4569
3290.00 1511.7413 1043.0035 34.6919 1.4551
3300.00 1511.9132 1043.0488 34.6920 1.4533
3310.00 1512.0851 1043.0941 34.6922 1.4515
3320.00 1512.2570 1043.1394 34.6923 1.4497
3330.00 1512.4289 1043.1847 34.6925 1.4479
3340.00 1512.6009 1043.2300 34.6927 1.4461
3350.00 1512.7728 1043.2753 34.6928 1.4443
3360.00 1512.9447 1043.3206 34.6930 1.4425
3370.00 1513.1166 1043.3659 34.6931 1.4408
3380.00 1513.2885 1043.4112 34.6933 1.4390
3390.00 1513.4604 1043.4565 34.6935 1.4372
3400.00 1513.6323 1043.5018 34.6936 1.4354
3410.00 1513.8042 1043.5471 34.6938 1.4336
3420.00 1513.9761 1043.5924 34.6939 1.4318
3430.00 1514.1480 1043.6378 34.6941 1.4300
3440.00 1514.3200 1043.6831 34.6943 1.4282
3450.00 1514.4919 1043.7284 34.6944 1.4264
3460.00 1514.6638 1043.7737 34.6946 1.4246
3470.00 1514.8357 1043.8190 34.6947 1.4228
3480.00 1515.0076 1043.8643 34.6949 1.4210
3490.00 1515.1795 1043.9096 34.6951 1.4192
3500.00 1515.3514 1043.9549 34.6952 1.4174
3510.00 1515.5233 1044.0002 34.6954 1.4156
3520.00 1515.6952 1044.0455 34.6955 1.4138
3530.00 1515.8671 1044.0908 34.6957 1.4120
3540.00 1516.0391 1044.1361 34.6958 1.4102
3550.00 1516.2110 1044.1814 34.6960 1.4084
3560.00 1516.3829 1044.2267 34.6962 1.4066
3570.00 1516.5548 1044.2720 34.6963 1.4048
3580.00 1516.7267 1044.3173 34.6965 1.4031
3590.00 1516.9051 1044.3621 34.6965 1.4025
3600.00 1517.0845 1044.4069 34.6966 1.4021
3610.00 1517.2638 1044.4516 34.6966 1.4017
3620.00 1517.4432 1044.4964 34.6967 1.4014
3630.00 1517.6225 1044.5411 34.6967 1.4010
3640.00 1517.8019 1044.5858 34.6967 1.4006
3650.00 1517.9813 1044.6306 34.6968 1.4002
3660.00 1518.1606 1044.6753 34.6968 1.3998
3670.00 1518.3400 1044.7201 34.6969 1.3995
3680.00 1518.5193 1044.7648 34.6969 1.3991
3690.00 1518.6987 1044.8096 34.6969 1.3987
3700.00 1518.8780 1044.8543 34.6970 1.3983
3710.00 1519.0574 1044.8991 34.6970 1.3979
3720.00 1519.2367 1044.9438 34.6971 1.3976
3730.00 1519.4161 1044.9885 34.6971 1.3972
3740.00 1519.5955 1045.0333 34.6971 1.3968
3750.00 1519.7748 1045.0780 34.6972 1.3964
3760.00 1519.9542 1045.1228 34.6972 1.3960
3770.00 1520.1335 1045.1675 34.6973 1.3957
3780.00 1520.3129 1045.2123 34.6973 1.3953
3790.00 1520.4922 1045.2570 34.6973 1.3949
3800.00 1520.6716 1045.3018 34.6974 1.3945
3810.00 1520.8509 1045.3465 34.6974 1.3941
3820.00 1521.0303 1045.3913 34.6975 1.3938
3830.00 1521.2097 1045.4360 34.6975 1.3934
3840.00 1521.3890 1045.4807 34.6975 1.3930
3850.00 1521.5684 1045.5255 34.6976 1.3926
3860.00 1521.7477 1045.5702 34.6976 1.3922
3870.00 1521.9271 1045.6150 34.6977 1.3919
3880.00 1522.1064 1045.6597 34.6977 1.3915
3890.00 1522.2858 1045.7045 34.6977 1.3911
3900.00 1522.4651 1045.7492 34.6978 1.3907
3910.00 1522.6445 1045.7940 34.6978 1.3903
3920.00 1522.6922 1045.8471 34.7012 1.3586
3930.00 1522.8745 1045.8915 34.7012 1.3586
3940.00 1523.0568 1045.9359 34.7012 1.3586
3950.00 1523.2391 1045.9803 34.7012 1.3586
