# Averages over distance (i) for each depth (k):
# Depth(m) Speed(m/s) Density(kg/m^3) Salt PSU Theta(degC)
0.00 1543.3185 1022.7999 35.7832 28.5588
10.00 1543.4620 1022.8484 35.7846 28.5454
20.00 1543.5983 1022.9012 35.7894 28.5269
30.00 1543.6922 1022.9692 35.8036 28.4836
40.00 1543.7040 1023.0604 35.8291 28.3961
50.00 1543.6122 1023.1772 35.8653 28.2553
60.00 1543.4245 1023.3179 35.9118 28.0654
70.00 1543.1593 1023.4806 35.9703 27.8349
80.00 1542.7927 1023.6684 36.0405 27.5537
90.00 1542.2686 1023.8861 36.1198 27.1994
100.00 1541.5159 1024.1380 36.2032 26.7454
110.00 1540.4870 1024.4166 36.2778 26.1814
120.00 1539.2700 1024.6917 36.3260 25.5587
130.00 1538.0563 1024.9301 36.3408 24.9643
140.00 1536.9701 1025.1226 36.3284 24.4456
150.00 1536.0207 1025.2706 36.2915 24.0046
160.00 1535.0267 1025.4092 36.2413 23.5574
170.00 1533.9967 1025.5401 36.1806 23.1050
180.00 1532.6959 1025.6762 36.0982 22.5681
190.00 1531.3096 1025.8138 36.0090 22.0044
200.00 1529.6476 1025.9612 35.9082 21.3580
210.00 1527.7375 1026.1174 35.7967 20.6372
220.00 1525.8274 1026.2736 35.6853 19.9164
230.00 1523.6697 1026.4345 35.5768 19.1437
240.00 1521.4198 1026.5972 35.4694 18.3518
250.00 1519.1700 1026.7600 35.3621 17.5599
260.00 1516.9477 1026.9184 35.2621 16.7893
270.00 1514.8064 1027.0642 35.1838 16.0816
280.00 1512.6651 1027.2101 35.1056 15.3739
290.00 1510.5238 1027.3559 35.0274 14.6662
300.00 1508.3858 1027.5016 34.9494 13.9598
310.00 1506.7166 1027.6190 34.9049 13.4314
320.00 1505.0475 1027.7364 34.8605 12.9031
330.00 1503.3783 1027.8539 34.8161 12.3747
340.00 1501.7092 1027.9713 34.7716 11.8464
350.00 1500.0400 1028.0887 34.7272 11.3180
360.00 1498.9414 1028.1811 34.7060 10.9698
370.00 1497.8845 1028.2717 34.6865 10.6346
380.00 1496.8275 1028.3623 34.6670 10.2995
390.00 1495.7706 1028.4529 34.6475 9.9644
400.00 1494.7136 1028.5435 34.6280 9.6293
410.00 1493.6603 1028.6340 34.6086 9.2952
420.00 1493.1194 1028.7054 34.6020 9.1076
430.00 1492.5785 1028.7768 34.5955 8.9199
440.00 1492.0377 1028.8483 34.5889 8.7323
450.00 1491.4968 1028.9197 34.5824 8.5446
460.00 1490.9559 1028.9911 34.5758 8.3570
470.00 1490.4151 1029.0625 34.5693 8.1694
480.00 1489.9383 1029.1315 34.5636 7.9994
490.00 1489.6507 1029.1933 34.5608 7.8816
500.00 1489.3631 1029.2551 34.5579 7.7638
510.00 1489.0755 1029.3168 34.5551 7.6460
520.00 1488.7879 1029.3786 34.5522 7.5282
530.00 1488.5003 1029.4404 34.5493 7.4104
540.00 1488.2127 1029.5022 34.5465 7.2926
550.00 1487.9251 1029.5640 34.5436 7.1748
560.00 1487.7066 1029.6229 34.5414 7.0761
570.00 1487.5138 1029.6808 34.5394 6.9847
580.00 1487.3210 1029.7387 34.5374 6.8932
590.00 1487.1282 1029.7965 34.5355 6.8017
600.00 1486.9355 1029.8544 34.5335 6.7102
610.00 1486.7427 1029.9123 34.5315 6.6187
620.00 1486.5499 1029.9702 34.5295 6.5273
630.00 1486.3571 1030.0280 34.5275 6.4358
640.00 1486.1977 1030.0847 34.5260 6.3533
650.00 1486.0681 1030.1404 34.5249 6.2790
660.00 1485.9386 1030.1961 34.5238 6.2047
670.00 1485.8091 1030.2518 34.5227 6.1304
680.00 1485.6795 1030.3075 34.5216 6.0561
690.00 1485.5500 1030.3632 34.5204 5.9818
700.00 1485.4205 1030.4188 34.5193 5.9074
710.00 1485.2910 1030.4745 34.5182 5.8331
720.00 1485.1614 1030.5302 34.5171 5.7588
730.00 1485.0728 1030.5848 34.5167 5.6952
740.00 1484.9971 1030.6389 34.5165 5.6350
750.00 1484.9214 1030.6931 34.5163 5.5747
760.00 1484.8457 1030.7473 34.5161 5.5145
770.00 1484.7700 1030.8015 34.5159 5.4543
780.00 1484.6943 1030.8557 34.5157 5.3940
790.00 1484.6187 1030.9099 34.5155 5.3338
800.00 1484.5430 1030.9641 34.5153 5.2736
810.00 1484.4673 1031.0182 34.5151 5.2133
820.00 1484.4140 1031.0719 34.5153 5.1588
830.00 1484.3790 1031.1250 34.5158 5.1090
840.00 1484.3439 1031.1782 34.5163 5.0592
850.00 1484.3089 1031.2314 34.5168 5.0094
860.00 1484.2738 1031.2846 34.5173 4.9595
870.00 1484.2388 1031.3377 34.5178 4.9097
880.00 1484.2037 1031.3909 34.5183 4.8599
890.00 1484.1687 1031.4441 34.5188 4.8101
900.00 1484.1336 1031.4972 34.5193 4.7602
910.00 1484.0993 1031.5504 34.5198 4.7106
920.00 1484.0917 1031.6029 34.5207 4.6678
930.00 1484.0842 1031.6553 34.5216 4.6249
940.00 1484.0767 1031.7078 34.5225 4.5821
950.00 1484.0691 1031.7603 34.5234 4.5393
960.00 1484.0616 1031.8127 34.5243 4.4964
970.00 1484.0540 1031.8652 34.5252 4.4536
980.00 1484.0465 1031.9177 34.5262 4.4108
990.00 1484.0390 1031.9702 34.5271 4.3680
1000.00 1484.0314 1032.0226 34.5280 4.3251
1010.00 1484.0294 1032.0749 34.5290 4.2837
1020.00 1484.0412 1032.1269 34.5301 4.2458
1030.00 1484.0530 1032.1788 34.5312 4.2078
1040.00 1484.0648 1032.2307 34.5323 4.1699
1050.00 1484.0766 1032.2826 34.5334 4.1320
1060.00 1484.0884 1032.3346 34.5346 4.0941
1070.00 1484.1002 1032.3865 34.5357 4.0562
1080.00 1484.1120 1032.4384 34.5368 4.0182
1090.00 1484.1238 1032.4903 34.5379 3.9803
1100.00 1484.1356 1032.5422 34.5390 3.9424
1110.00 1484.1541 1032.5940 34.5402 3.9061
1120.00 1484.1822 1032.6454 34.5414 3.8723
1130.00 1484.2103 1032.6968 34.5427 3.8385
1140.00 1484.2383 1032.7483 34.5439 3.8046
1150.00 1484.2664 1032.7997 34.5451 3.7708
1160.00 1484.2945 1032.8511 34.5463 3.7369
1170.00 1484.3225 1032.9025 34.5475 3.7031
1180.00 1484.3506 1032.9540 34.5488 3.6692
1190.00 1484.3787 1033.0054 34.5500 3.6354
1200.00 1484.4067 1033.0568 34.5512 3.6015
1210.00 1484.4417 1033.1080 34.5525 3.5694
1220.00 1484.4851 1033.1590 34.5537 3.5393
1230.00 1484.5285 1033.2099 34.5550 3.5092
1240.00 1484.5719 1033.2609 34.5562 3.4792
1250.00 1484.6154 1033.3118 34.5575 3.4491
1260.00 1484.6588 1033.3627 34.5588 3.4190
1270.00 1484.7022 1033.4137 34.5600 3.3890
1280.00 1484.7456 1033.4646 34.5613 3.3589
1290.00 1484.7891 1033.5155 34.5626 3.3288
1300.00 1484.8325 1033.5665 34.5638 3.2988
1310.00 1484.8817 1033.6172 34.5651 3.2701
1320.00 1484.9403 1033.6677 34.5664 3.2437
1330.00 1484.9990 1033.7181 34.5677 3.2173
1340.00 1485.0576 1033.7686 34.5689 3.1909
1350.00 1485.1163 1033.8191 34.5702 3.1645
1360.00 1485.1749 1033.8695 34.5715 3.1381
1370.00 1485.2336 1033.9200 34.5728 3.1117
1380.00 1485.2922 1033.9704 34.5741 3.0853
1390.00 1485.3509 1034.0209 34.5753 3.0589
1400.00 1485.4095 1034.0713 34.5766 3.0324
1410.00 1485.4695 1034.1217 34.5779 3.0063
1420.00 1485.5433 1034.1717 34.5791 2.9835
1430.00 1485.6171 1034.2216 34.5804 2.9607
1440.00 1485.6910 1034.2716 34.5816 2.9379
1450.00 1485.7648 1034.3215 34.5829 2.9151
1460.00 1485.8386 1034.3714 34.5841 2.8923
1470.00 1485.9125 1034.4214 34.5854 2.8695
1480.00 1485.9863 1034.4713 34.5866 2.8467
1490.00 1486.0601 1034.5213 34.5879 2.8239
1500.00 1486.1339 1034.5712 34.5891 2.8010
1510.00 1486.2078 1034.6212 34.5904 2.7782
1520.00 1486.2861 1034.6709 34.5916 2.7565
1530.00 1486.3752 1034.7203 34.5928 2.7372
1540.00 1486.4644 1034.7697 34.5939 2.7180
1550.00 1486.5536 1034.8191 34.5951 2.6988
1560.00 1486.6428 1034.8685 34.5963 2.6795
1570.00 1486.7319 1034.9179 34.5974 2.6603
1580.00 1486.8211 1034.9672 34.5986 2.6411
1590.00 1486.9103 1035.0166 34.5998 2.6219
1600.00 1486.9995 1035.0660 34.6009 2.6026
1610.00 1487.0887 1035.1154 34.6021 2.5834
1620.00 1487.1778 1035.1648 34.6033 2.5642
1630.00 1487.2670 1035.2142 34.6045 2.5449
1640.00 1487.3651 1035.2632 34.6055 2.5278
1650.00 1487.4696 1035.3120 34.6066 2.5120
1660.00 1487.5741 1035.3608 34.6076 2.4963
1670.00 1487.6786 1035.4096 34.6087 2.4806
1680.00 1487.7831 1035.4584 34.6097 2.4649
1690.00 1487.8876 1035.5072 34.6107 2.4492
1700.00 1487.9921 1035.5560 34.6118 2.4335
1710.00 1488.0966 1035.6048 34.6128 2.4178
1720.00 1488.2011 1035.6536 34.6139 2.4021
1730.00 1488.3056 1035.7024 34.6149 2.3863
1740.00 1488.4101 1035.7512 34.6159 2.3706
1750.00 1488.5146 1035.8000 34.6170 2.3549
1760.00 1488.6191 1035.8488 34.6180 2.3392
1770.00 1488.7305 1035.8973 34.6190 2.3251
1780.00 1488.8492 1035.9455 34.6199 2.3126
1790.00 1488.9679 1035.9938 34.6207 2.3001
1800.00 1489.0866 1036.0420 34.6216 2.2876
1810.00 1489.2053 1036.0902 34.6225 2.2751
1820.00 1489.3240 1036.1384 34.6234 2.2625
1830.00 1489.4427 1036.1866 34.6243 2.2500
1840.00 1489.5614 1036.2348 34.6251 2.2375
1850.00 1489.6802 1036.2830 34.6260 2.2250
1860.00 1489.7989 1036.3313 34.6269 2.2125
1870.00 1489.9176 1036.3795 34.6278 2.2000
1880.00 1490.0363 1036.4277 34.6287 2.1875
1890.00 1490.1550 1036.4759 34.6295 2.1750
1900.00 1490.2737 1036.5241 34.6304 2.1625
1910.00 1490.3924 1036.5723 34.6313 2.1500
1920.00 1490.5181 1036.6202 34.6321 2.1391
1930.00 1490.6488 1036.6679 34.6328 2.1292
1940.00 1490.7795 1036.7156 34.6335 2.1194
1950.00 1490.9102 1036.7633 34.6342 2.1095
1960.00 1491.0408 1036.8110 34.6350 2.0997
1970.00 1491.1715 1036.8586 34.6357 2.0899
1980.00 1491.3022 1036.9063 34.6364 2.0800
1990.00 1491.4329 1036.9540 34.6371 2.0702
2000.00 1491.5636 1037.0017 34.6378 2.0603
2010.00 1491.6943 1037.0493 34.6385 2.0505
2020.00 1491.8250 1037.0970 34.6393 2.0406
2030.00 1491.9557 1037.1447 34.6400 2.0308
2040.00 1492.0864 1037.1924 34.6407 2.0209
2050.00 1492.2171 1037.2401 34.6414 2.0111
2060.00 1492.3478 1037.2877 34.6421 2.0012
2070.00 1492.4785 1037.3354 34.6428 1.9914
2080.00 1492.6091 1037.3831 34.6436 1.9815
2090.00 1492.7453 1037.4305 34.6442 1.9729
2100.00 1492.8853 1037.4777 34.6447 1.9650
2110.00 1493.0252 1037.5249 34.6453 1.9571
2120.00 1493.1651 1037.5721 34.6459 1.9493
2130.00 1493.3050 1037.6193 34.6464 1.9414
2140.00 1493.4449 1037.6665 34.6470 1.9335
2150.00 1493.5849 1037.7138 34.6475 1.9257
2160.00 1493.7248 1037.7610 34.6481 1.9178
2170.00 1493.8647 1037.8082 34.6487 1.9100
2180.00 1494.0046 1037.8554 34.6492 1.9021
2190.00 1494.1445 1037.9026 34.6498 1.8942
2200.00 1494.2845 1037.9498 34.6504 1.8864
2210.00 1494.4244 1037.9970 34.6509 1.8785
2220.00 1494.5643 1038.0442 34.6515 1.8706
2230.00 1494.7042 1038.0914 34.6520 1.8628
2240.00 1494.8441 1038.1387 34.6526 1.8549
2250.00 1494.9841 1038.1859 34.6532 1.8470
2260.00 1495.1240 1038.2331 34.6537 1.8392
2270.00 1495.2639 1038.2803 34.6543 1.8313
2280.00 1495.4065 1038.3274 34.6548 1.8240
2290.00 1495.5534 1038.3742 34.6552 1.8176
2300.00 1495.7003 1038.4210 34.6556 1.8111
2310.00 1495.8472 1038.4678 34.6561 1.8047
2320.00 1495.9942 1038.5146 34.6565 1.7983
2330.00 1496.1411 1038.5614 34.6569 1.7918
2340.00 1496.2880 1038.6082 34.6573 1.7854
2350.00 1496.4349 1038.6550 34.6578 1.7790
2360.00 1496.5819 1038.7018 34.6582 1.7726
2370.00 1496.7288 1038.7486 34.6586 1.7661
2380.00 1496.8757 1038.7954 34.6590 1.7597
2390.00 1497.0226 1038.8422 34.6595 1.7533
2400.00 1497.1696 1038.8890 34.6599 1.7468
2410.00 1497.3165 1038.9358 34.6603 1.7404
2420.00 1497.4634 1038.9826 34.6607 1.7340
2430.00 1497.6103 1039.0294 34.6612 1.7276
2440.00 1497.7573 1039.0762 34.6616 1.7211
2450.00 1497.9042 1039.1231 34.6620 1.7147
2460.00 1498.0511 1039.1699 34.6624 1.7083
2470.00 1498.1980 1039.2167 34.6629 1.7018
2480.00 1498.3450 1039.2635 34.6633 1.6954
2490.00 1498.4919 1039.3103 34.6637 1.6890
2500.00 1498.6438 1039.3568 34.6641 1.6835
2510.00 1498.7965 1039.4032 34.6644 1.6782
2520.00 1498.9491 1039.4496 34.6647 1.6729
2530.00 1499.1018 1039.4961 34.6650 1.6676
2540.00 1499.2544 1039.5425 34.6653 1.6623
2550.00 1499.4070 1039.5890 34.6656 1.6569
2560.00 1499.5597 1039.6354 34.6659 1.6516
2570.00 1499.7123 1039.6818 34.6663 1.6463
2580.00 1499.8650 1039.7283 34.6666 1.6410
2590.00 1500.0176 1039.7747 34.6669 1.6357
2600.00 1500.1702 1039.8211 34.6672 1.6303
2610.00 1500.3229 1039.8676 34.6675 1.6250
2620.00 1500.4755 1039.9140 34.6678 1.6197
2630.00 1500.6282 1039.9605 34.6682 1.6144
2640.00 1500.7808 1040.0069 34.6685 1.6091
2650.00 1500.9334 1040.0533 34.6688 1.6037
2660.00 1501.0861 1040.0998 34.6691 1.5984
2670.00 1501.2387 1040.1462 34.6694 1.5931
2680.00 1501.3914 1040.1926 34.6697 1.5878
2690.00 1501.5440 1040.2391 34.6700 1.5825
2700.00 1501.6967 1040.2855 34.6704 1.5771
2710.00 1501.8493 1040.3320 34.6707 1.5718
2720.00 1502.0019 1040.3784 34.6710 1.5665
2730.00 1502.1549 1040.4248 34.6713 1.5612
2740.00 1502.3122 1040.4709 34.6715 1.5567
2750.00 1502.4695 1040.5170 34.6718 1.5523
2760.00 1502.6267 1040.5632 34.6720 1.5478
2770.00 1502.7840 1040.6093 34.6723 1.5433
2780.00 1502.9413 1040.6554 34.6725 1.5388
2790.00 1503.0985 1040.7015 34.6727 1.5343
2800.00 1503.2558 1040.7476 34.6730 1.5298
2810.00 1503.4131 1040.7937 34.6732 1.5253
2820.00 1503.5704 1040.8398 34.6735 1.5208
2830.00 1503.7276 1040.8859 34.6737 1.5163
2840.00 1503.8849 1040.9321 34.6739 1.5118
2850.00 1504.0422 1040.9782 34.6742 1.5073
2860.00 1504.1994 1041.0243 34.6744 1.5028
2870.00 1504.3567 1041.0704 34.6747 1.4983
2880.00 1504.5140 1041.1165 34.6749 1.4938
2890.00 1504.6712 1041.1626 34.6751 1.4893
2900.00 1504.8285 1041.2087 34.6754 1.4848
2910.00 1504.9858 1041.2548 34.6756 1.4804
2920.00 1505.1431 1041.3010 34.6758 1.4759
2930.00 1505.3003 1041.3471 34.6761 1.4714
2940.00 1505.4576 1041.3932 34.6763 1.4669
2950.00 1505.6149 1041.4393 34.6766 1.4624
2960.00 1505.7721 1041.4854 34.6768 1.4579
2970.00 1505.9294 1041.5315 34.6770 1.4534
2980.00 1506.0867 1041.5776 34.6773 1.4489
2990.00 1506.2439 1041.6237 34.6775 1.4444
3000.00 1506.4046 1041.6696 34.6777 1.4404
3010.00 1506.5653 1041.7154 34.6779 1.4365
3020.00 1506.7260 1041.7613 34.6781 1.4325
3030.00 1506.8868 1041.8071 34.6783 1.4285
3040.00 1507.0475 1041.8529 34.6785 1.4246
3050.00 1507.2082 1041.8988 34.6787 1.4206
3060.00 1507.3690 1041.9446 34.6789 1.4167
3070.00 1507.5297 1041.9904 34.6791 1.4127
3080.00 1507.6904 1042.0363 34.6793 1.4087
3090.00 1507.8512 1042.0821 34.6795 1.4048
3100.00 1508.0119 1042.1279 34.6797 1.4008
3110.00 1508.1726 1042.1738 34.6799 1.3968
3120.00 1508.3333 1042.2196 34.6801 1.3929
3130.00 1508.4941 1042.2654 34.6803 1.3889
3140.00 1508.6548 1042.3113 34.6805 1.3850
3150.00 1508.8155 1042.3571 34.6807 1.3810
3160.00 1508.9763 1042.4029 34.6809 1.3770
3170.00 1509.1370 1042.4488 34.6811 1.3731
3180.00 1509.2977 1042.4946 34.6813 1.3691
3190.00 1509.4584 1042.5404 34.6815 1.3651
3200.00 1509.6192 1042.5863 34.6817 1.3612
3210.00 1509.7799 1042.6321 34.6819 1.3572
3220.00 1509.9406 1042.6779 34.6821 1.3533
3230.00 1510.1014 1042.7238 34.6823 1.3493
3240.00 1510.2621 1042.7696 34.6825 1.3453
3250.00 1510.4228 1042.8155 34.6827 1.3414
3260.00 1510.5835 1042.8613 34.6829 1.3374
3270.00 1510.7443 1042.9071 34.6831 1.3334
3280.00 1510.9065 1042.9528 34.6833 1.3297
3290.00 1511.0698 1042.9984 34.6835 1.3260
3300.00 1511.2331 1043.0440 34.6837 1.3223
3310.00 1511.3964 1043.0896 34.6839 1.3187
3320.00 1511.5597 1043.1352 34.6841 1.3150
3330.00 1511.7229 1043.1808 34.6843 1.3113
3340.00 1511.8862 1043.2264 34.6845 1.3077
3350.00 1512.0495 1043.2720 34.6847 1.3040
3360.00 1512.2128 1043.3176 34.6849 1.3004
3370.00 1512.3761 1043.3632 34.6851 1.2967
3380.00 1512.5394 1043.4088 34.6853 1.2930
3390.00 1512.7027 1043.4544 34.6855 1.2894
3400.00 1512.8660 1043.5000 34.6857 1.2857
3410.00 1513.0293 1043.5456 34.6858 1.2820
3420.00 1513.1926 1043.5912 34.6860 1.2784
3430.00 1513.3559 1043.6368 34.6862 1.2747
3440.00 1513.5192 1043.6824 34.6864 1.2711
3450.00 1513.6825 1043.7280 34.6866 1.2674
3460.00 1513.8458 1043.7736 34.6868 1.2637
3470.00 1514.0091 1043.8192 34.6870 1.2601
3480.00 1514.1723 1043.8648 34.6872 1.2564
3490.00 1514.3356 1043.9104 34.6874 1.2527
3500.00 1514.4989 1043.9560 34.6876 1.2491
3510.00 1514.6622 1044.0016 34.6878 1.2454
3520.00 1514.8255 1044.0472 34.6880 1.2418
3530.00 1514.9888 1044.0928 34.6882 1.2381
3540.00 1515.1521 1044.1384 34.6884 1.2344
3550.00 1515.3154 1044.1840 34.6885 1.2308
3560.00 1515.4787 1044.2296 34.6887 1.2271
3570.00 1515.6420 1044.2752 34.6889 1.2234
3580.00 1515.8053 1044.3208 34.6891 1.2198
3590.00 1515.9700 1044.3663 34.6893 1.2162
3600.00 1516.1348 1044.4117 34.6895 1.2126
3610.00 1516.2997 1044.4571 34.6897 1.2090
3620.00 1516.4646 1044.5025 34.6900 1.2054
3630.00 1516.6294 1044.5479 34.6902 1.2018
3640.00 1516.7943 1044.5933 34.6904 1.1981
3650.00 1516.9592 1044.6387 34.6906 1.1945
3660.00 1517.1240 1044.6841 34.6908 1.1909
3670.00 1517.2889 1044.7295 34.6910 1.1873
3680.00 1517.4538 1044.7749 34.6912 1.1837
3690.00 1517.6186 1044.8203 34.6914 1.1801
3700.00 1517.7835 1044.8657 34.6916 1.1765
3710.00 1517.9484 1044.9111 34.6918 1.1729
3720.00 1518.1132 1044.9565 34.6920 1.1693
3730.00 1518.2781 1045.0019 34.6922 1.1657
3740.00 1518.4430 1045.0473 34.6924 1.1621
3750.00 1518.6078 1045.0927 34.6926 1.1585
3760.00 1518.7727 1045.1381 34.6928 1.1549
3770.00 1518.9376 1045.1835 34.6930 1.1513
3780.00 1519.1024 1045.2289 34.6933 1.1477
3790.00 1519.2673 1045.2743 34.6935 1.1441
3800.00 1519.4322 1045.3197 34.6937 1.1405
3810.00 1519.5970 1045.3651 34.6939 1.1369
3820.00 1519.7619 1045.4105 34.6941 1.1333
3830.00 1519.9268 1045.4559 34.6943 1.1296
3840.00 1520.0916 1045.5013 34.6945 1.1260
3850.00 1520.2565 1045.5467 34.6947 1.1224
3860.00 1520.4214 1045.5921 34.6949 1.1188
3870.00 1520.5862 1045.6376 34.6951 1.1152
3880.00 1520.7511 1045.6830 34.6953 1.1116
3890.00 1520.9160 1045.7284 34.6955 1.1080
3900.00 1521.0808 1045.7738 34.6957 1.1044
3910.00 1521.2457 1045.8192 34.6959 1.1008
3920.00 1521.4116 1045.8644 34.6962 1.0972
3930.00 1521.5776 1045.9096 34.6964 1.0935
3940.00 1521.7436 1045.9548 34.6966 1.0899
3950.00 1521.9097 1046.0000 34.6968 1.0862
3960.00 1522.0757 1046.0452 34.6970 1.0825
3970.00 1522.2417 1046.0904 34.6972 1.0789
3980.00 1522.4077 1046.1356 34.6975 1.0752
3990.00 1522.5738 1046.1808 34.6977 1.0716
4000.00 1522.7398 1046.2261 34.6979 1.0679
4010.00 1522.9058 1046.2713 34.6981 1.0643
4020.00 1523.0719 1046.3165 34.6983 1.0606
4030.00 1523.2379 1046.3617 34.6986 1.0570
4040.00 1523.4039 1046.4069 34.6988 1.0533
4050.00 1523.5699 1046.4521 34.6990 1.0497
4060.00 1523.7360 1046.4973 34.6992 1.0460
4070.00 1523.9020 1046.5425 34.6994 1.0424
4080.00 1524.0680 1046.5877 34.6996 1.0387
4090.00 1524.2341 1046.6329 34.6999 1.0351
4100.00 1524.4001 1046.6781 34.7001 1.0314
4110.00 1524.5661 1046.7233 34.7003 1.0277
4120.00 1524.7321 1046.7685 34.7005 1.0241
4130.00 1524.8982 1046.8138 34.7007 1.0204
4140.00 1525.0642 1046.8590 34.7010 1.0168
4150.00 1525.2302 1046.9042 34.7012 1.0131
4160.00 1525.3963 1046.9494 34.7014 1.0095
4170.00 1525.5623 1046.9946 34.7016 1.0058
4180.00 1525.7283 1047.0398 34.7018 1.0022
4190.00 1525.8943 1047.0850 34.7020 0.9985
4200.00 1526.0604 1047.1302 34.7023 0.9949
4210.00 1526.2264 1047.1754 34.7025 0.9912
4220.00 1526.3924 1047.2206 34.7027 0.9876
4230.00 1526.5585 1047.2658 34.7029 0.9839
4240.00 1526.7245 1047.3110 34.7031 0.9803
4250.00 1526.8905 1047.3562 34.7034 0.9766
4260.00 1527.0566 1047.4014 34.7036 0.9729
4270.00 1527.2258 1047.4464 34.7038 0.9698
4280.00 1527.3975 1047.4912 34.7039 0.9671
4290.00 1527.5691 1047.5359 34.7041 0.9644
4300.00 1527.7408 1047.5807 34.7042 0.9618
4310.00 1527.9125 1047.6254 34.7044 0.9591
4320.00 1528.0841 1047.6702 34.7046 0.9564
4330.00 1528.2558 1047.7150 34.7047 0.9537
4340.00 1528.4274 1047.7597 34.7049 0.9510
4350.00 1528.5991 1047.8045 34.7051 0.9483
4360.00 1528.7707 1047.8493 34.7052 0.9456
4370.00 1528.9424 1047.8940 34.7054 0.9429
4380.00 1529.1141 1047.9388 34.7055 0.9402
4390.00 1529.2857 1047.9835 34.7057 0.9375
4400.00 1529.4574 1048.0283 34.7059 0.9348
4410.00 1529.6290 1048.0731 34.7060 0.9321
4420.00 1529.8007 1048.1178 34.7062 0.9294
4430.00 1529.9724 1048.1626 34.7063 0.9267
4440.00 1530.1440 1048.2073 34.7065 0.9240
4450.00 1530.3157 1048.2521 34.7067 0.9213
4460.00 1530.4873 1048.2969 34.7068 0.9186
4470.00 1530.6590 1048.3416 34.7070 0.9159
4480.00 1530.8307 1048.3864 34.7072 0.9132
4490.00 1531.0023 1048.4312 34.7073 0.9105
4500.00 1531.1740 1048.4759 34.7075 0.9078
4510.00 1531.3456 1048.5207 34.7076 0.9051
4520.00 1531.5173 1048.5654 34.7078 0.9024
4530.00 1531.6889 1048.6102 34.7080 0.8997
4540.00 1531.8606 1048.6550 34.7081 0.8970
4550.00 1532.0323 1048.6997 34.7083 0.8943
4560.00 1532.2039 1048.7445 34.7085 0.8916
4570.00 1532.3756 1048.7892 34.7086 0.8889
4580.00 1532.5472 1048.8340 34.7088 0.8862
4590.00 1532.7189 1048.8788 34.7089 0.8835
4600.00 1532.8906 1048.9235 34.7091 0.8808
4610.00 1533.0622 1048.9683 34.7093 0.8781
4620.00 1533.2339 1049.0131 34.7094 0.8754
4630.00 1533.4055 1049.0578 34.7096 0.8727
4640.00 1533.5772 1049.1026 34.7097 0.8700
4650.00 1533.7618 1049.1465 34.7098 0.8700
4660.00 1533.9467 1049.1903 34.7098 0.8700
4670.00 1534.1316 1049.2342 34.7098 0.8700
4680.00 1534.3166 1049.2780 34.7098 0.8700
4690.00 1534.5015 1049.3219 34.7098 0.8700
4700.00 1534.6864 1049.3658 34.7098 0.8700
4710.00 1534.8713 1049.4096 34.7098 0.8700
4720.00 1535.0563 1049.4535 34.7098 0.8700
4730.00 1535.2412 1049.4974 34.7098 0.8700
4740.00 1535.4261 1049.5412 34.7098 0.8700
4750.00 1535.6110 1049.5851 34.7098 0.8700
