# Averages over distance (i) for each depth (k):
# Depth(m) Speed(m/s) Density(kg/m^3) Salt PSU Theta(degC)
0.00 1537.1325 1023.8893 36.0001 25.6808
10.00 1537.2303 1023.9423 36.0002 25.6496
20.00 1537.1570 1024.0204 36.0029 25.5441
30.00 1536.8133 1024.1362 36.0084 25.3228
40.00 1536.3473 1024.2652 36.0117 25.0524
50.00 1535.8483 1024.3930 36.0104 24.7727
60.00 1535.3347 1024.5177 36.0050 24.4911
70.00 1534.8227 1024.6380 35.9963 24.2142
80.00 1534.3358 1024.7515 35.9848 23.9510
90.00 1533.8810 1024.8580 35.9711 23.7039
100.00 1533.4337 1024.9602 35.9547 23.4629
110.00 1532.9638 1025.0615 35.9352 23.2161
120.00 1532.4479 1025.1641 35.9125 22.9545
130.00 1531.8650 1025.2695 35.8857 22.6705
140.00 1531.2088 1025.3784 35.8549 22.3620
150.00 1530.4885 1025.4896 35.8210 22.0340
160.00 1529.7777 1025.5991 35.7881 21.7119
170.00 1529.0746 1025.7071 35.7560 21.3947
180.00 1528.3943 1025.8117 35.7251 21.0897
190.00 1527.7212 1025.9152 35.6948 20.7886
200.00 1527.0272 1026.0183 35.6637 20.4837
210.00 1526.3143 1026.1209 35.6320 20.1753
220.00 1525.6014 1026.2236 35.6003 19.8669
230.00 1524.7950 1026.3286 35.5654 19.5333
240.00 1523.9539 1026.4345 35.5294 19.1903
250.00 1523.1128 1026.5403 35.4933 18.8474
260.00 1522.2120 1026.6478 35.4555 18.4884
270.00 1521.1352 1026.7599 35.4124 18.0822
280.00 1520.0584 1026.8720 35.3692 17.6760
290.00 1518.9816 1026.9841 35.3261 17.2698
300.00 1517.9030 1027.0962 35.2830 16.8632
310.00 1516.5682 1027.2104 35.2343 16.3987
320.00 1515.2334 1027.3247 35.1856 15.9343
330.00 1513.8986 1027.4390 35.1369 15.4699
340.00 1512.5639 1027.5533 35.0882 15.0054
350.00 1511.2291 1027.6675 35.0395 14.5410
360.00 1509.8329 1027.7725 34.9937 14.0856
370.00 1508.4322 1027.8769 34.9481 13.6310
380.00 1507.0315 1027.9812 34.9026 13.1763
390.00 1505.6307 1028.0855 34.8570 12.7217
400.00 1504.2300 1028.1898 34.8114 12.2670
410.00 1502.8309 1028.2940 34.7659 11.8130
420.00 1501.6539 1028.3805 34.7323 11.4469
430.00 1500.4769 1028.4670 34.6986 11.0809
440.00 1499.2999 1028.5535 34.6649 10.7148
450.00 1498.1229 1028.6400 34.6312 10.3488
460.00 1496.9459 1028.7266 34.5976 9.9827
470.00 1495.7689 1028.8131 34.5639 9.6167
480.00 1494.6909 1028.8956 34.5338 9.2808
490.00 1493.9052 1028.9664 34.5144 9.0338
500.00 1493.1195 1029.0373 34.4950 8.7868
510.00 1492.3338 1029.1081 34.4756 8.5398
520.00 1491.5481 1029.1790 34.4562 8.2929
530.00 1490.7623 1029.2498 34.4368 8.0459
540.00 1489.9766 1029.3207 34.4174 7.7989
550.00 1489.1909 1029.3915 34.3980 7.5520
560.00 1488.6658 1029.4557 34.3868 7.3759
570.00 1488.2375 1029.5175 34.3786 7.2261
580.00 1487.8093 1029.5793 34.3704 7.0763
590.00 1487.3811 1029.6411 34.3623 6.9265
600.00 1486.9528 1029.7028 34.3541 6.7768
610.00 1486.5246 1029.7646 34.3459 6.6270
620.00 1486.0963 1029.8264 34.3377 6.4772
630.00 1485.6681 1029.8881 34.3296 6.3274
640.00 1485.3582 1029.9480 34.3252 6.2079
650.00 1485.1547 1030.0061 34.3241 6.1156
660.00 1484.9512 1030.0642 34.3230 6.0233
670.00 1484.7477 1030.1223 34.3220 5.9310
680.00 1484.5442 1030.1804 34.3209 5.8387
690.00 1484.3408 1030.2385 34.3198 5.7463
700.00 1484.1373 1030.2966 34.3188 5.6540
710.00 1483.9338 1030.3547 34.3177 5.5617
720.00 1483.7303 1030.4128 34.3167 5.4694
730.00 1483.6210 1030.4699 34.3186 5.4003
740.00 1483.5413 1030.5266 34.3215 5.3386
750.00 1483.4617 1030.5833 34.3244 5.2769
760.00 1483.3821 1030.6400 34.3273 5.2152
770.00 1483.3025 1030.6967 34.3303 5.1535
780.00 1483.2229 1030.7534 34.3332 5.0917
790.00 1483.1433 1030.8101 34.3361 5.0300
800.00 1483.0637 1030.8668 34.3390 4.9683
810.00 1482.9841 1030.9236 34.3419 4.9066
820.00 1482.9398 1030.9797 34.3457 4.8535
830.00 1482.9241 1031.0355 34.3502 4.8074
840.00 1482.9085 1031.0913 34.3547 4.7614
850.00 1482.8928 1031.1470 34.3592 4.7153
860.00 1482.8772 1031.2028 34.3637 4.6692
870.00 1482.8615 1031.2586 34.3682 4.6232
880.00 1482.8458 1031.3143 34.3727 4.5771
890.00 1482.8302 1031.3701 34.3772 4.5310
900.00 1482.8145 1031.4258 34.3817 4.4850
910.00 1482.7995 1031.4816 34.3863 4.4391
920.00 1482.8105 1031.5364 34.3908 4.3998
930.00 1482.8214 1031.5912 34.3953 4.3605
940.00 1482.8324 1031.6460 34.3998 4.3212
950.00 1482.8433 1031.7009 34.4043 4.2819
960.00 1482.8543 1031.7557 34.4088 4.2426
970.00 1482.8652 1031.8105 34.4133 4.2034
980.00 1482.8762 1031.8653 34.4178 4.1641
990.00 1482.8871 1031.9201 34.4223 4.1248
1000.00 1482.8981 1031.9749 34.4268 4.0855
1010.00 1482.9113 1032.0295 34.4312 4.0469
1020.00 1482.9302 1032.0834 34.4350 4.0100
1030.00 1482.9491 1032.1374 34.4388 3.9731
1040.00 1482.9680 1032.1913 34.4427 3.9362
1050.00 1482.9869 1032.2452 34.4465 3.8993
1060.00 1483.0058 1032.2992 34.4504 3.8624
1070.00 1483.0248 1032.3531 34.4542 3.8255
1080.00 1483.0437 1032.4070 34.4581 3.7886
1090.00 1483.0626 1032.4610 34.4619 3.7517
1100.00 1483.0815 1032.5149 34.4657 3.7149
1110.00 1483.1038 1032.5684 34.4693 3.6790
1120.00 1483.1310 1032.6214 34.4724 3.6445
1130.00 1483.1581 1032.6744 34.4755 3.6100
1140.00 1483.1853 1032.7274 34.4786 3.5756
1150.00 1483.2125 1032.7804 34.4817 3.5411
1160.00 1483.2397 1032.8334 34.4848 3.5067
1170.00 1483.2669 1032.8864 34.4879 3.4722
1180.00 1483.2940 1032.9394 34.4910 3.4377
1190.00 1483.3212 1032.9924 34.4941 3.4033
1200.00 1483.3484 1033.0454 34.4972 3.3688
1210.00 1483.3834 1033.0980 34.5001 3.3363
1220.00 1483.4281 1033.1499 34.5026 3.3063
1230.00 1483.4728 1033.2018 34.5051 3.2763
1240.00 1483.5175 1033.2537 34.5076 3.2463
1250.00 1483.5622 1033.3056 34.5101 3.2163
1260.00 1483.6069 1033.3576 34.5126 3.1863
1270.00 1483.6516 1033.4095 34.5151 3.1563
1280.00 1483.6963 1033.4614 34.5176 3.1263
1290.00 1483.7410 1033.5133 34.5201 3.0963
1300.00 1483.7857 1033.5653 34.5226 3.0663
1310.00 1483.8384 1033.6168 34.5250 3.0383
1320.00 1483.9042 1033.6678 34.5271 3.0134
1330.00 1483.9700 1033.7187 34.5292 2.9885
1340.00 1484.0359 1033.7696 34.5313 2.9637
1350.00 1484.1017 1033.8206 34.5334 2.9388
1360.00 1484.1675 1033.8715 34.5356 2.9139
1370.00 1484.2333 1033.9225 34.5377 2.8890
1380.00 1484.2991 1033.9734 34.5398 2.8642
1390.00 1484.3650 1034.0244 34.5419 2.8393
1400.00 1484.4308 1034.0753 34.5440 2.8144
1410.00 1484.4983 1034.1262 34.5461 2.7899
1420.00 1484.5835 1034.1764 34.5480 2.7696
1430.00 1484.6688 1034.2266 34.5499 2.7493
1440.00 1484.7541 1034.2767 34.5518 2.7290
1450.00 1484.8394 1034.3269 34.5538 2.7088
1460.00 1484.9247 1034.3771 34.5557 2.6885
1470.00 1485.0100 1034.4273 34.5576 2.6682
1480.00 1485.0952 1034.4775 34.5595 2.6479
1490.00 1485.1805 1034.5276 34.5614 2.6276
1500.00 1485.2658 1034.5778 34.5633 2.6073
1510.00 1485.3511 1034.6280 34.5652 2.5870
1520.00 1485.4417 1034.6780 34.5671 2.5679
1530.00 1485.5452 1034.7274 34.5688 2.5519
1540.00 1485.6488 1034.7769 34.5706 2.5358
1550.00 1485.7523 1034.8264 34.5723 2.5197
1560.00 1485.8559 1034.8758 34.5740 2.5037
1570.00 1485.9594 1034.9253 34.5758 2.4876
1580.00 1486.0630 1034.9748 34.5775 2.4716
1590.00 1486.1665 1035.0242 34.5792 2.4555
1600.00 1486.2701 1035.0737 34.5810 2.4394
1610.00 1486.3736 1035.1232 34.5827 2.4234
1620.00 1486.4771 1035.1726 34.5844 2.4073
1630.00 1486.5807 1035.2221 34.5862 2.3912
1640.00 1486.6936 1035.2711 34.5878 2.3773
1650.00 1486.8133 1035.3199 34.5892 2.3649
1660.00 1486.9330 1035.3686 34.5907 2.3526
1670.00 1487.0526 1035.4174 34.5922 2.3402
1680.00 1487.1723 1035.4662 34.5936 2.3278
1690.00 1487.2919 1035.5149 34.5951 2.3154
1700.00 1487.4116 1035.5637 34.5966 2.3031
1710.00 1487.5313 1035.6124 34.5981 2.2907
1720.00 1487.6509 1035.6612 34.5995 2.2783
1730.00 1487.7706 1035.7099 34.6010 2.2660
1740.00 1487.8903 1035.7587 34.6025 2.2536
1750.00 1488.0099 1035.8074 34.6040 2.2412
1760.00 1488.1296 1035.8562 34.6054 2.2288
1770.00 1488.2552 1035.9046 34.6068 2.2178
1780.00 1488.3872 1035.9527 34.6079 2.2082
1790.00 1488.5192 1036.0008 34.6091 2.1986
1800.00 1488.6511 1036.0489 34.6103 2.1891
1810.00 1488.7831 1036.0970 34.6114 2.1795
1820.00 1488.9150 1036.1451 34.6126 2.1699
1830.00 1489.0470 1036.1932 34.6138 2.1603
1840.00 1489.1790 1036.2413 34.6149 2.1507
1850.00 1489.3109 1036.2894 34.6161 2.1411
1860.00 1489.4429 1036.3375 34.6173 2.1315
1870.00 1489.5748 1036.3856 34.6185 2.1219
1880.00 1489.7068 1036.4337 34.6196 2.1124
1890.00 1489.8388 1036.4818 34.6208 2.1028
1900.00 1489.9707 1036.5299 34.6220 2.0932
1910.00 1490.1027 1036.5780 34.6231 2.0836
1920.00 1490.2396 1036.6258 34.6241 2.0751
1930.00 1490.3800 1036.6733 34.6250 2.0674
1940.00 1490.5205 1036.7209 34.6259 2.0597
1950.00 1490.6609 1036.7685 34.6268 2.0520
1960.00 1490.8014 1036.8160 34.6276 2.0443
1970.00 1490.9418 1036.8636 34.6285 2.0366
1980.00 1491.0822 1036.9111 34.6294 2.0289
1990.00 1491.2227 1036.9587 34.6303 2.0211
2000.00 1491.3631 1037.0062 34.6311 2.0134
2010.00 1491.5036 1037.0538 34.6320 2.0057
2020.00 1491.6440 1037.1013 34.6329 1.9980
2030.00 1491.7845 1037.1489 34.6338 1.9903
2040.00 1491.9249 1037.1964 34.6347 1.9826
2050.00 1492.0653 1037.2440 34.6355 1.9749
2060.00 1492.2058 1037.2915 34.6364 1.9672
2070.00 1492.3462 1037.3391 34.6373 1.9595
2080.00 1492.4867 1037.3867 34.6382 1.9517
2090.00 1492.6306 1037.4339 34.6389 1.9448
2100.00 1492.7770 1037.4811 34.6396 1.9383
2110.00 1492.9233 1037.5282 34.6402 1.9318
2120.00 1493.0696 1037.5753 34.6408 1.9254
2130.00 1493.2160 1037.6224 34.6415 1.9189
2140.00 1493.3623 1037.6695 34.6421 1.9124
2150.00 1493.5086 1037.7166 34.6428 1.9060
2160.00 1493.6550 1037.7637 34.6434 1.8995
2170.00 1493.8013 1037.8108 34.6440 1.8930
2180.00 1493.9477 1037.8579 34.6447 1.8866
2190.00 1494.0940 1037.9051 34.6453 1.8801
2200.00 1494.2403 1037.9522 34.6460 1.8736
2210.00 1494.3867 1037.9993 34.6466 1.8672
2220.00 1494.5330 1038.0464 34.6473 1.8607
2230.00 1494.6793 1038.0935 34.6479 1.8542
2240.00 1494.8257 1038.1406 34.6485 1.8478
2250.00 1494.9720 1038.1877 34.6492 1.8413
2260.00 1495.1184 1038.2348 34.6498 1.8348
2270.00 1495.2647 1038.2819 34.6505 1.8284
2280.00 1495.4127 1038.3289 34.6511 1.8222
2290.00 1495.5634 1038.3757 34.6515 1.8166
2300.00 1495.7142 1038.4224 34.6520 1.8110
2310.00 1495.8649 1038.4692 34.6525 1.8054
2320.00 1496.0156 1038.5159 34.6529 1.7998
2330.00 1496.1664 1038.5627 34.6534 1.7942
2340.00 1496.3171 1038.6094 34.6539 1.7885
2350.00 1496.4678 1038.6562 34.6544 1.7829
2360.00 1496.6186 1038.7029 34.6548 1.7773
2370.00 1496.7693 1038.7497 34.6553 1.7717
2380.00 1496.9200 1038.7964 34.6558 1.7661
2390.00 1497.0708 1038.8432 34.6563 1.7605
2400.00 1497.2215 1038.8899 34.6567 1.7549
2410.00 1497.3723 1038.9367 34.6572 1.7493
2420.00 1497.5230 1038.9834 34.6577 1.7436
2430.00 1497.6737 1039.0302 34.6582 1.7380
2440.00 1497.8245 1039.0769 34.6586 1.7324
2450.00 1497.9752 1039.1237 34.6591 1.7268
2460.00 1498.1259 1039.1704 34.6596 1.7212
2470.00 1498.2767 1039.2172 34.6601 1.7156
2480.00 1498.4274 1039.2639 34.6605 1.7100
2490.00 1498.5781 1039.3107 34.6610 1.7044
2500.00 1498.7319 1039.3572 34.6614 1.6993
2510.00 1498.8861 1039.4036 34.6617 1.6943
2520.00 1499.0403 1039.4501 34.6621 1.6892
2530.00 1499.1944 1039.4965 34.6625 1.6842
2540.00 1499.3486 1039.5430 34.6628 1.6792
2550.00 1499.5028 1039.5894 34.6632 1.6742
2560.00 1499.6570 1039.6359 34.6636 1.6692
2570.00 1499.8112 1039.6823 34.6639 1.6642
2580.00 1499.9654 1039.7288 34.6643 1.6592
2590.00 1500.1195 1039.7752 34.6647 1.6541
2600.00 1500.2737 1039.8217 34.6650 1.6491
2610.00 1500.4279 1039.8681 34.6654 1.6441
2620.00 1500.5821 1039.9146 34.6658 1.6391
2630.00 1500.7363 1039.9610 34.6661 1.6341
2640.00 1500.8905 1040.0075 34.6665 1.6291
2650.00 1501.0446 1040.0539 34.6669 1.6241
2660.00 1501.1988 1040.1004 34.6672 1.6190
2670.00 1501.3530 1040.1469 34.6676 1.6140
2680.00 1501.5072 1040.1933 34.6680 1.6090
2690.00 1501.6614 1040.2398 34.6683 1.6040
2700.00 1501.8156 1040.2862 34.6687 1.5990
2710.00 1501.9697 1040.3327 34.6691 1.5940
2720.00 1502.1239 1040.3791 34.6694 1.5889
2730.00 1502.2783 1040.4256 34.6698 1.5840
2740.00 1502.4354 1040.4718 34.6701 1.5794
2750.00 1502.5924 1040.5179 34.6704 1.5748
2760.00 1502.7494 1040.5641 34.6707 1.5702
2770.00 1502.9064 1040.6103 34.6710 1.5656
2780.00 1503.0635 1040.6565 34.6713 1.5610
2790.00 1503.2205 1040.7027 34.6716 1.5564
2800.00 1503.3775 1040.7489 34.6720 1.5518
2810.00 1503.5346 1040.7951 34.6723 1.5472
2820.00 1503.6916 1040.8413 34.6726 1.5426
2830.00 1503.8486 1040.8875 34.6729 1.5381
2840.00 1504.0057 1040.9337 34.6732 1.5335
2850.00 1504.1627 1040.9799 34.6735 1.5289
2860.00 1504.3197 1041.0261 34.6738 1.5243
2870.00 1504.4767 1041.0723 34.6741 1.5197
2880.00 1504.6338 1041.1185 34.6744 1.5151
2890.00 1504.7908 1041.1647 34.6747 1.5105
2900.00 1504.9478 1041.2109 34.6750 1.5059
2910.00 1505.1049 1041.2571 34.6753 1.5013
2920.00 1505.2619 1041.3033 34.6756 1.4967
2930.00 1505.4189 1041.3495 34.6759 1.4921
2940.00 1505.5759 1041.3957 34.6762 1.4875
2950.00 1505.7330 1041.4419 34.6765 1.4830
2960.00 1505.8900 1041.4881 34.6769 1.4784
2970.00 1506.0470 1041.5343 34.6772 1.4738
2980.00 1506.2041 1041.5805 34.6775 1.4692
2990.00 1506.3611 1041.6267 34.6778 1.4646
3000.00 1506.5206 1041.6727 34.6780 1.4603
3010.00 1506.6802 1041.7186 34.6783 1.4560
3020.00 1506.8398 1041.7646 34.6786 1.4518
3030.00 1506.9993 1041.8106 34.6789 1.4475
3040.00 1507.1589 1041.8565 34.6792 1.4432
3050.00 1507.3185 1041.9025 34.6794 1.4390
3060.00 1507.4781 1041.9485 34.6797 1.4347
3070.00 1507.6376 1041.9944 34.6800 1.4304
3080.00 1507.7972 1042.0404 34.6803 1.4262
3090.00 1507.9568 1042.0863 34.6805 1.4219
3100.00 1508.1164 1042.1323 34.6808 1.4176
3110.00 1508.2759 1042.1783 34.6811 1.4134
3120.00 1508.4355 1042.2242 34.6814 1.4091
3130.00 1508.5951 1042.2702 34.6816 1.4048
3140.00 1508.7547 1042.3162 34.6819 1.4006
3150.00 1508.9142 1042.3621 34.6822 1.3963
3160.00 1509.0738 1042.4081 34.6825 1.3920
3170.00 1509.2334 1042.4541 34.6828 1.3878
3180.00 1509.3930 1042.5000 34.6830 1.3835
3190.00 1509.5525 1042.5460 34.6833 1.3792
3200.00 1509.7121 1042.5919 34.6836 1.3750
3210.00 1509.8717 1042.6379 34.6839 1.3707
3220.00 1510.0313 1042.6839 34.6841 1.3664
3230.00 1510.1909 1042.7298 34.6844 1.3622
3240.00 1510.3504 1042.7758 34.6847 1.3579
3250.00 1510.5100 1042.8218 34.6850 1.3536
3260.00 1510.6696 1042.8677 34.6852 1.3494
3270.00 1510.8292 1042.9137 34.6855 1.3451
3280.00 1510.9906 1042.9595 34.6858 1.3411
3290.00 1511.1534 1043.0052 34.6860 1.3373
3300.00 1511.3162 1043.0509 34.6863 1.3335
3310.00 1511.4790 1043.0966 34.6865 1.3297
3320.00 1511.6418 1043.1423 34.6868 1.3258
3330.00 1511.8045 1043.1880 34.6870 1.3220
3340.00 1511.9673 1043.2337 34.6873 1.3182
3350.00 1512.1301 1043.2793 34.6875 1.3144
3360.00 1512.2929 1043.3250 34.6878 1.3106
3370.00 1512.4557 1043.3707 34.6881 1.3068
3380.00 1512.6185 1043.4164 34.6883 1.3029
3390.00 1512.7813 1043.4621 34.6886 1.2991
3400.00 1512.9441 1043.5078 34.6888 1.2953
3410.00 1513.1069 1043.5535 34.6891 1.2915
3420.00 1513.2697 1043.5992 34.6893 1.2877
3430.00 1513.4325 1043.6449 34.6896 1.2839
3440.00 1513.5953 1043.6906 34.6898 1.2801
3450.00 1513.7580 1043.7363 34.6901 1.2762
3460.00 1513.9208 1043.7820 34.6903 1.2724
3470.00 1514.0836 1043.8277 34.6906 1.2686
3480.00 1514.2464 1043.8734 34.6908 1.2648
3490.00 1514.4092 1043.9190 34.6911 1.2610
3500.00 1514.5720 1043.9647 34.6913 1.2572
3510.00 1514.7348 1044.0104 34.6916 1.2533
3520.00 1514.8976 1044.0561 34.6918 1.2495
3530.00 1515.0604 1044.1018 34.6921 1.2457
3540.00 1515.2232 1044.1475 34.6923 1.2419
3550.00 1515.3860 1044.1932 34.6926 1.2381
3560.00 1515.5488 1044.2389 34.6928 1.2343
3570.00 1515.7116 1044.2846 34.6931 1.2305
3580.00 1515.8743 1044.3303 34.6933 1.2266
3590.00 1516.0418 1044.3756 34.6936 1.2236
3600.00 1516.2099 1044.4209 34.6938 1.2207
3610.00 1516.3780 1044.4662 34.6940 1.2178
3620.00 1516.5461 1044.5115 34.6942 1.2149
3630.00 1516.7143 1044.5568 34.6944 1.2120
3640.00 1516.8824 1044.6022 34.6946 1.2091
3650.00 1517.0505 1044.6475 34.6948 1.2062
3660.00 1517.2186 1044.6928 34.6950 1.2033
3670.00 1517.3867 1044.7381 34.6952 1.2004
3680.00 1517.5548 1044.7834 34.6954 1.1975
3690.00 1517.7230 1044.8287 34.6956 1.1946
3700.00 1517.8911 1044.8740 34.6958 1.1917
3710.00 1518.0592 1044.9193 34.6960 1.1888
3720.00 1518.2273 1044.9646 34.6962 1.1858
3730.00 1518.3954 1045.0099 34.6964 1.1829
3740.00 1518.5636 1045.0552 34.6966 1.1800
3750.00 1518.7317 1045.1005 34.6968 1.1771
3760.00 1518.8998 1045.1458 34.6970 1.1742
3770.00 1519.0679 1045.1911 34.6972 1.1713
3780.00 1519.2360 1045.2364 34.6974 1.1684
3790.00 1519.4041 1045.2817 34.6976 1.1655
3800.00 1519.5723 1045.3270 34.6978 1.1626
3810.00 1519.7404 1045.3723 34.6980 1.1597
3820.00 1519.9085 1045.4176 34.6982 1.1568
3830.00 1520.0766 1045.4629 34.6984 1.1539
3840.00 1520.2447 1045.5082 34.6986 1.1510
3850.00 1520.4128 1045.5535 34.6988 1.1481
3860.00 1520.5810 1045.5988 34.6990 1.1452
3870.00 1520.7491 1045.6441 34.6992 1.1423
3880.00 1520.9172 1045.6894 34.6994 1.1394
3890.00 1521.0853 1045.7347 34.6996 1.1365
3900.00 1521.2534 1045.7800 34.6998 1.1335
3910.00 1521.4215 1045.8253 34.7000 1.1306
3920.00 1521.5957 1045.8702 34.7001 1.1288
3930.00 1521.7706 1045.9150 34.7003 1.1272
3940.00 1521.9456 1045.9598 34.7004 1.1255
3950.00 1522.1206 1046.0046 34.7005 1.1239
3960.00 1522.2955 1046.0494 34.7006 1.1222
3970.00 1522.4705 1046.0942 34.7008 1.1205
3980.00 1522.6455 1046.1390 34.7009 1.1189
3990.00 1522.8205 1046.1838 34.7010 1.1172
4000.00 1522.9954 1046.2286 34.7012 1.1156
4010.00 1523.1704 1046.2734 34.7013 1.1139
4020.00 1523.3454 1046.3182 34.7014 1.1122
4030.00 1523.5203 1046.3630 34.7015 1.1106
4040.00 1523.6953 1046.4078 34.7017 1.1089
4050.00 1523.8703 1046.4526 34.7018 1.1073
4060.00 1524.0453 1046.4974 34.7019 1.1056
4070.00 1524.2202 1046.5422 34.7020 1.1039
4080.00 1524.3952 1046.5870 34.7022 1.1023
4090.00 1524.5702 1046.6318 34.7023 1.1006
4100.00 1524.7451 1046.6766 34.7024 1.0990
4110.00 1524.9201 1046.7214 34.7025 1.0973
4120.00 1525.0951 1046.7662 34.7027 1.0956
4130.00 1525.2701 1046.8110 34.7028 1.0940
4140.00 1525.4450 1046.8558 34.7029 1.0923
4150.00 1525.6200 1046.9006 34.7030 1.0907
4160.00 1525.7950 1046.9454 34.7032 1.0890
4170.00 1525.9699 1046.9902 34.7033 1.0874
4180.00 1526.1449 1047.0350 34.7034 1.0857
4190.00 1526.3199 1047.0798 34.7036 1.0840
4200.00 1526.4949 1047.1246 34.7037 1.0824
4210.00 1526.6698 1047.1694 34.7038 1.0807
4220.00 1526.8448 1047.2142 34.7039 1.0791
4230.00 1527.0198 1047.2590 34.7041 1.0774
4240.00 1527.1947 1047.3038 34.7042 1.0757
4250.00 1527.3697 1047.3486 34.7043 1.0741
4260.00 1527.5447 1047.3934 34.7044 1.0724
4270.00 1527.7241 1047.4379 34.7045 1.0716
4280.00 1527.9068 1047.4821 34.7045 1.0714
4290.00 1528.0895 1047.5263 34.7045 1.0712
4300.00 1528.2722 1047.5705 34.7046 1.0710
4310.00 1528.4549 1047.6146 34.7046 1.0708
4320.00 1528.6377 1047.6588 34.7046 1.0706
4330.00 1528.8204 1047.7030 34.7046 1.0704
4340.00 1529.0031 1047.7472 34.7046 1.0702
4350.00 1529.1858 1047.7914 34.7046 1.0700
4360.00 1529.3685 1047.8356 34.7046 1.0698
4370.00 1529.5512 1047.8798 34.7047 1.0696
4380.00 1529.7339 1047.9240 34.7047 1.0694
4390.00 1529.9166 1047.9682 34.7047 1.0692
4400.00 1530.0993 1048.0123 34.7047 1.0690
4410.00 1530.2820 1048.0565 34.7047 1.0688
4420.00 1530.4648 1048.1007 34.7047 1.0686
4430.00 1530.6475 1048.1449 34.7048 1.0684
4440.00 1530.8302 1048.1891 34.7048 1.0682
4450.00 1531.0129 1048.2333 34.7048 1.0680
4460.00 1531.1956 1048.2775 34.7048 1.0678
4470.00 1531.3783 1048.3217 34.7048 1.0676
4480.00 1531.5610 1048.3659 34.7048 1.0674
4490.00 1531.7437 1048.4100 34.7049 1.0672
