# Averages over distance (i) for each depth (k):
# Depth(m) Speed(m/s) Density(kg/m^3) Salt PSU Theta(degC)
0.00 1524.5032 1024.9284 35.5200 20.8724
10.00 1524.5859 1024.9820 35.5210 20.8394
20.00 1524.4729 1025.0568 35.5239 20.7331
30.00 1524.0200 1025.1662 35.5277 20.5014
40.00 1523.3692 1025.2925 35.5298 20.1997
50.00 1522.6656 1025.4216 35.5308 19.8818
60.00 1521.9590 1025.5485 35.5308 19.5661
70.00 1521.2381 1025.6737 35.5290 19.2489
80.00 1520.5069 1025.7964 35.5249 18.9319
90.00 1519.8015 1025.9134 35.5187 18.6276
100.00 1519.1771 1026.0206 35.5108 18.3545
110.00 1518.6814 1026.1152 35.5025 18.1280
120.00 1518.3171 1026.1982 35.4946 17.9477
130.00 1518.0349 1026.2741 35.4870 17.7962
140.00 1517.7791 1026.3471 35.4790 17.6545
150.00 1517.4813 1026.4215 35.4690 17.5001
160.00 1517.1278 1026.4983 35.4568 17.3287
170.00 1516.7293 1026.5769 35.4429 17.1433
180.00 1516.2483 1026.6581 35.4253 16.9337
190.00 1515.7412 1026.7401 35.4067 16.7163
200.00 1515.1897 1026.8226 35.3857 16.4872
210.00 1514.5983 1026.9055 35.3625 16.2476
220.00 1514.0069 1026.9883 35.3394 16.0080
230.00 1513.3454 1027.0714 35.3128 15.7511
240.00 1512.6578 1027.1545 35.2850 15.4877
250.00 1511.9702 1027.2376 35.2571 15.2244
260.00 1511.2454 1027.3210 35.2279 14.9519
270.00 1510.4106 1027.4054 35.1946 14.6527
280.00 1509.5758 1027.4898 35.1614 14.3534
290.00 1508.7410 1027.5742 35.1281 14.0542
300.00 1507.9054 1027.6585 35.0948 13.7548
310.00 1506.9483 1027.7417 35.0584 13.4317
320.00 1505.9913 1027.8249 35.0221 13.1086
330.00 1505.0343 1027.9080 34.9857 12.7854
340.00 1504.0772 1027.9912 34.9494 12.4623
350.00 1503.1202 1028.0743 34.9130 12.1392
360.00 1502.2223 1028.1505 34.8804 11.8449
370.00 1501.3287 1028.2261 34.8481 11.5526
380.00 1500.4351 1028.3016 34.8158 11.2603
390.00 1499.5414 1028.3772 34.7835 10.9681
400.00 1498.6478 1028.4528 34.7512 10.6758
410.00 1497.7559 1028.5284 34.7189 10.3840
420.00 1497.1027 1028.5939 34.6959 10.1665
430.00 1496.4494 1028.6595 34.6730 9.9490
440.00 1495.7962 1028.7251 34.6500 9.7314
450.00 1495.1430 1028.7907 34.6270 9.5139
460.00 1494.4897 1028.8562 34.6040 9.2964
470.00 1493.8365 1028.9218 34.5810 9.0788
480.00 1493.2478 1028.9856 34.5603 8.8795
490.00 1492.8498 1029.0439 34.5461 8.7338
500.00 1492.4517 1029.1023 34.5320 8.5881
510.00 1492.0536 1029.1606 34.5179 8.4425
520.00 1491.6556 1029.2190 34.5038 8.2968
530.00 1491.2575 1029.2773 34.4897 8.1511
540.00 1490.8594 1029.3357 34.4756 8.0055
550.00 1490.4614 1029.3940 34.4615 7.8598
560.00 1490.1935 1029.4496 34.4518 7.7489
570.00 1489.9740 1029.5042 34.4437 7.6511
580.00 1489.7545 1029.5588 34.4356 7.5532
590.00 1489.5351 1029.6133 34.4276 7.4553
600.00 1489.3156 1029.6679 34.4195 7.3574
610.00 1489.0961 1029.7225 34.4114 7.2595
620.00 1488.8766 1029.7771 34.4034 7.1616
630.00 1488.6572 1029.8317 34.3953 7.0637
640.00 1488.4872 1029.8855 34.3891 6.9787
650.00 1488.3617 1029.9388 34.3846 6.9053
660.00 1488.2362 1029.9920 34.3801 6.8319
670.00 1488.1107 1030.0452 34.3756 6.7585
680.00 1487.9853 1030.0985 34.3711 6.6852
690.00 1487.8598 1030.1517 34.3666 6.6118
700.00 1487.7343 1030.2049 34.3621 6.5384
710.00 1487.6088 1030.2582 34.3576 6.4650
720.00 1487.4834 1030.3114 34.3531 6.3916
730.00 1487.3860 1030.3647 34.3503 6.3256
740.00 1487.2975 1030.4180 34.3480 6.2618
750.00 1487.2090 1030.4713 34.3457 6.1981
760.00 1487.1205 1030.5247 34.3434 6.1344
770.00 1487.0320 1030.5780 34.3412 6.0706
780.00 1486.9435 1030.6313 34.3389 6.0069
790.00 1486.8550 1030.6846 34.3366 5.9432
800.00 1486.7665 1030.7380 34.3343 5.8794
810.00 1486.6780 1030.7913 34.3321 5.8157
820.00 1486.5965 1030.8450 34.3308 5.7539
830.00 1486.5206 1030.8991 34.3303 5.6935
840.00 1486.4447 1030.9531 34.3298 5.6332
850.00 1486.3688 1031.0072 34.3294 5.5729
860.00 1486.2929 1031.0613 34.3289 5.5126
870.00 1486.2170 1031.1153 34.3284 5.4523
880.00 1486.1411 1031.1694 34.3279 5.3920
890.00 1486.0652 1031.2235 34.3275 5.3317
900.00 1485.9893 1031.2775 34.3270 5.2714
910.00 1485.9136 1031.3316 34.3265 5.2111
920.00 1485.8456 1031.3865 34.3277 5.1530
930.00 1485.7776 1031.4414 34.3289 5.0949
940.00 1485.7096 1031.4963 34.3301 5.0368
950.00 1485.6415 1031.5512 34.3312 4.9787
960.00 1485.5735 1031.6061 34.3324 4.9206
970.00 1485.5055 1031.6610 34.3336 4.8625
980.00 1485.4375 1031.7159 34.3348 4.8044
990.00 1485.3694 1031.7708 34.3359 4.7463
1000.00 1485.3014 1031.8257 34.3371 4.6882
1010.00 1485.2372 1031.8808 34.3387 4.6311
1020.00 1485.1824 1031.9362 34.3414 4.5764
1030.00 1485.1277 1031.9917 34.3440 4.5218
1040.00 1485.0730 1032.0471 34.3467 4.4671
1050.00 1485.0182 1032.1026 34.3494 4.4125
1060.00 1484.9635 1032.1581 34.3520 4.3578
1070.00 1484.9087 1032.2135 34.3547 4.3032
1080.00 1484.8540 1032.2690 34.3573 4.2486
1090.00 1484.7992 1032.3245 34.3600 4.1939
1100.00 1484.7445 1032.3799 34.3627 4.1393
1110.00 1484.6990 1032.4354 34.3658 4.0869
1120.00 1484.6670 1032.4910 34.3697 4.0379
1130.00 1484.6349 1032.5465 34.3736 3.9889
1140.00 1484.6029 1032.6021 34.3774 3.9399
1150.00 1484.5708 1032.6577 34.3813 3.8909
1160.00 1484.5387 1032.7132 34.3852 3.8418
1170.00 1484.5067 1032.7688 34.3890 3.7928
1180.00 1484.4746 1032.8243 34.3929 3.7438
1190.00 1484.4426 1032.8799 34.3968 3.6948
1200.00 1484.4105 1032.9354 34.4006 3.6458
1210.00 1484.3931 1032.9908 34.4048 3.6003
1220.00 1484.3938 1033.0458 34.4093 3.5592
1230.00 1484.3945 1033.1008 34.4139 3.5181
1240.00 1484.3952 1033.1558 34.4185 3.4770
1250.00 1484.3959 1033.2108 34.4230 3.4359
1260.00 1484.3967 1033.2658 34.4276 3.3948
1270.00 1484.3974 1033.3208 34.4321 3.3537
1280.00 1484.3981 1033.3758 34.4367 3.3126
1290.00 1484.3988 1033.4308 34.4412 3.2715
1300.00 1484.3995 1033.4858 34.4458 3.2304
1310.00 1484.4146 1033.5404 34.4504 3.1927
1320.00 1484.4532 1033.5942 34.4549 3.1607
1330.00 1484.4918 1033.6480 34.4595 3.1287
1340.00 1484.5303 1033.7019 34.4641 3.0966
1350.00 1484.5689 1033.7557 34.4686 3.0646
1360.00 1484.6075 1033.8095 34.4732 3.0325
1370.00 1484.6461 1033.8633 34.4778 3.0005
1380.00 1484.6846 1033.9172 34.4823 2.9685
1390.00 1484.7232 1033.9710 34.4869 2.9364
1400.00 1484.7618 1034.0248 34.4915 2.9044
1410.00 1484.8034 1034.0785 34.4960 2.8730
1420.00 1484.8775 1034.1308 34.4999 2.8495
1430.00 1484.9515 1034.1830 34.5039 2.8259
1440.00 1485.0256 1034.2353 34.5078 2.8024
1450.00 1485.0997 1034.2875 34.5118 2.7788
1460.00 1485.1738 1034.3397 34.5158 2.7553
1470.00 1485.2478 1034.3920 34.5197 2.7317
1480.00 1485.3219 1034.4442 34.5237 2.7081
1490.00 1485.3960 1034.4965 34.5276 2.6846
1500.00 1485.4701 1034.5487 34.5316 2.6610
1510.00 1485.5441 1034.6010 34.5355 2.6375
1520.00 1485.6264 1034.6527 34.5392 2.6159
1530.00 1485.7287 1034.7033 34.5422 2.5991
1540.00 1485.8311 1034.7539 34.5452 2.5823
1550.00 1485.9334 1034.8045 34.5482 2.5655
1560.00 1486.0358 1034.8551 34.5513 2.5487
1570.00 1486.1381 1034.9057 34.5543 2.5320
1580.00 1486.2404 1034.9563 34.5573 2.5152
1590.00 1486.3428 1035.0069 34.5603 2.4984
1600.00 1486.4451 1035.0575 34.5633 2.4816
1610.00 1486.5474 1035.1081 34.5663 2.4648
1620.00 1486.6498 1035.1587 34.5694 2.4481
1630.00 1486.7521 1035.2093 34.5724 2.4313
1640.00 1486.8660 1035.2591 34.5749 2.4173
1650.00 1486.9881 1035.3084 34.5770 2.4052
1660.00 1487.1103 1035.3576 34.5791 2.3932
1670.00 1487.2324 1035.4069 34.5812 2.3811
1680.00 1487.3546 1035.4561 34.5833 2.3691
1690.00 1487.4767 1035.5053 34.5854 2.3570
1700.00 1487.5988 1035.5546 34.5875 2.3450
1710.00 1487.7210 1035.6038 34.5896 2.3330
1720.00 1487.8431 1035.6530 34.5917 2.3209
1730.00 1487.9653 1035.7023 34.5938 2.3089
1740.00 1488.0874 1035.7515 34.5959 2.2968
1750.00 1488.2096 1035.8008 34.5979 2.2848
1760.00 1488.3317 1035.8500 34.6000 2.2727
1770.00 1488.4599 1035.8987 34.6018 2.2621
1780.00 1488.5945 1035.9470 34.6032 2.2530
1790.00 1488.7292 1035.9952 34.6046 2.2440
1800.00 1488.8638 1036.0435 34.6060 2.2349
1810.00 1488.9984 1036.0917 34.6074 2.2258
1820.00 1489.1330 1036.1400 34.6088 2.2167
1830.00 1489.2676 1036.1882 34.6102 2.2076
1840.00 1489.4023 1036.2364 34.6116 2.1985
1850.00 1489.5369 1036.2847 34.6130 2.1894
1860.00 1489.6715 1036.3329 34.6144 2.1803
1870.00 1489.8061 1036.3812 34.6158 2.1712
1880.00 1489.9407 1036.4294 34.6172 2.1621
1890.00 1490.0754 1036.4777 34.6186 2.1530
1900.00 1490.2100 1036.5259 34.6200 2.1439
1910.00 1490.3446 1036.5741 34.6214 2.1348
1920.00 1490.4836 1036.6220 34.6225 2.1267
1930.00 1490.6256 1036.6696 34.6235 2.1193
1940.00 1490.7677 1036.7172 34.6244 2.1119
1950.00 1490.9098 1036.7648 34.6253 2.1045
1960.00 1491.0518 1036.8123 34.6263 2.0971
1970.00 1491.1939 1036.8599 34.6272 2.0897
1980.00 1491.3359 1036.9075 34.6282 2.0823
1990.00 1491.4780 1036.9551 34.6291 2.0749
2000.00 1491.6201 1037.0027 34.6300 2.0675
2010.00 1491.7621 1037.0503 34.6310 2.0601
2020.00 1491.9042 1037.0979 34.6319 2.0527
2030.00 1492.0462 1037.1454 34.6329 2.0453
2040.00 1492.1883 1037.1930 34.6338 2.0379
2050.00 1492.3304 1037.2406 34.6347 2.0305
2060.00 1492.4724 1037.2882 34.6357 2.0231
2070.00 1492.6145 1037.3358 34.6366 2.0157
2080.00 1492.7565 1037.3834 34.6376 2.0083
2090.00 1492.9013 1037.4307 34.6383 2.0015
2100.00 1493.0478 1037.4778 34.6390 1.9950
2110.00 1493.1944 1037.5250 34.6397 1.9885
2120.00 1493.3409 1037.5721 34.6403 1.9821
2130.00 1493.4874 1037.6193 34.6410 1.9756
2140.00 1493.6340 1037.6664 34.6417 1.9692
2150.00 1493.7805 1037.7136 34.6423 1.9627
2160.00 1493.9271 1037.7607 34.6430 1.9562
2170.00 1494.0736 1037.8079 34.6437 1.9498
2180.00 1494.2202 1037.8550 34.6443 1.9433
2190.00 1494.3667 1037.9022 34.6450 1.9368
2200.00 1494.5133 1037.9493 34.6456 1.9304
2210.00 1494.6598 1037.9965 34.6463 1.9239
2220.00 1494.8063 1038.0436 34.6470 1.9175
2230.00 1494.9529 1038.0908 34.6476 1.9110
2240.00 1495.0994 1038.1379 34.6483 1.9045
2250.00 1495.2460 1038.1851 34.6490 1.8981
2260.00 1495.3925 1038.2322 34.6496 1.8916
2270.00 1495.5391 1038.2794 34.6503 1.8851
2280.00 1495.6868 1038.3264 34.6509 1.8789
2290.00 1495.8364 1038.3732 34.6514 1.8730
2300.00 1495.9861 1038.4201 34.6519 1.8671
2310.00 1496.1358 1038.4669 34.6524 1.8612
2320.00 1496.2854 1038.5137 34.6530 1.8553
2330.00 1496.4351 1038.5606 34.6535 1.8494
2340.00 1496.5848 1038.6074 34.6540 1.8435
2350.00 1496.7344 1038.6542 34.6545 1.8376
2360.00 1496.8841 1038.7011 34.6550 1.8317
2370.00 1497.0337 1038.7479 34.6555 1.8258
2380.00 1497.1834 1038.7948 34.6560 1.8199
2390.00 1497.3331 1038.8416 34.6565 1.8141
2400.00 1497.4827 1038.8884 34.6570 1.8082
2410.00 1497.6324 1038.9353 34.6575 1.8023
2420.00 1497.7821 1038.9821 34.6581 1.7964
2430.00 1497.9317 1039.0289 34.6586 1.7905
2440.00 1498.0814 1039.0758 34.6591 1.7846
2450.00 1498.2310 1039.1226 34.6596 1.7787
2460.00 1498.3807 1039.1694 34.6601 1.7728
2470.00 1498.5304 1039.2163 34.6606 1.7669
2480.00 1498.6800 1039.2631 34.6611 1.7610
2490.00 1498.8297 1039.3099 34.6616 1.7551
2500.00 1498.9818 1039.3565 34.6621 1.7496
2510.00 1499.1343 1039.4031 34.6625 1.7442
2520.00 1499.2868 1039.4497 34.6629 1.7387
2530.00 1499.4393 1039.4963 34.6633 1.7333
2540.00 1499.5918 1039.5428 34.6637 1.7279
2550.00 1499.7443 1039.5894 34.6642 1.7224
2560.00 1499.8968 1039.6360 34.6646 1.7170
2570.00 1500.0493 1039.6826 34.6650 1.7116
2580.00 1500.2018 1039.7291 34.6654 1.7061
2590.00 1500.3543 1039.7757 34.6659 1.7007
2600.00 1500.5068 1039.8223 34.6663 1.6952
2610.00 1500.6593 1039.8689 34.6667 1.6898
2620.00 1500.8118 1039.9154 34.6671 1.6844
2630.00 1500.9643 1039.9620 34.6675 1.6789
2640.00 1501.1168 1040.0086 34.6680 1.6735
2650.00 1501.2693 1040.0551 34.6684 1.6681
2660.00 1501.4217 1040.1017 34.6688 1.6626
2670.00 1501.5742 1040.1483 34.6692 1.6572
2680.00 1501.7267 1040.1949 34.6697 1.6517
2690.00 1501.8792 1040.2414 34.6701 1.6463
2700.00 1502.0317 1040.2880 34.6705 1.6409
2710.00 1502.1842 1040.3346 34.6709 1.6354
2720.00 1502.3367 1040.3812 34.6714 1.6300
2730.00 1502.4894 1040.4277 34.6718 1.6246
2740.00 1502.6449 1040.4740 34.6721 1.6196
2750.00 1502.8004 1040.5204 34.6725 1.6146
2760.00 1502.9559 1040.5667 34.6729 1.6097
2770.00 1503.1114 1040.6130 34.6732 1.6047
2780.00 1503.2669 1040.6593 34.6736 1.5997
2790.00 1503.4224 1040.7056 34.6740 1.5947
2800.00 1503.5779 1040.7519 34.6743 1.5898
2810.00 1503.7334 1040.7983 34.6747 1.5848
2820.00 1503.8889 1040.8446 34.6751 1.5798
2830.00 1504.0444 1040.8909 34.6754 1.5748
2840.00 1504.1999 1040.9372 34.6758 1.5698
2850.00 1504.3554 1040.9835 34.6762 1.5649
2860.00 1504.5109 1041.0298 34.6765 1.5599
2870.00 1504.6664 1041.0762 34.6769 1.5549
2880.00 1504.8219 1041.1225 34.6773 1.5499
2890.00 1504.9774 1041.1688 34.6776 1.5450
2900.00 1505.1329 1041.2151 34.6780 1.5400
2910.00 1505.2884 1041.2614 34.6784 1.5350
2920.00 1505.4439 1041.3078 34.6787 1.5300
2930.00 1505.5994 1041.3541 34.6791 1.5251
2940.00 1505.7549 1041.4004 34.6795 1.5201
2950.00 1505.9104 1041.4467 34.6798 1.5151
2960.00 1506.0659 1041.4930 34.6802 1.5101
2970.00 1506.2214 1041.5393 34.6806 1.5052
2980.00 1506.3770 1041.5857 34.6809 1.5002
2990.00 1506.5325 1041.6320 34.6813 1.4952
3000.00 1506.6909 1041.6780 34.6816 1.4907
3010.00 1506.8494 1041.7241 34.6820 1.4861
3020.00 1507.0080 1041.7701 34.6823 1.4816
3030.00 1507.1665 1041.8162 34.6826 1.4770
3040.00 1507.3250 1041.8622 34.6829 1.4725
3050.00 1507.4836 1041.9083 34.6832 1.4680
3060.00 1507.6421 1041.9543 34.6835 1.4634
3070.00 1507.8006 1042.0004 34.6839 1.4589
3080.00 1507.9591 1042.0464 34.6842 1.4544
3090.00 1508.1177 1042.0925 34.6845 1.4498
3100.00 1508.2762 1042.1385 34.6848 1.4453
3110.00 1508.4347 1042.1846 34.6851 1.4408
3120.00 1508.5933 1042.2306 34.6855 1.4362
3130.00 1508.7518 1042.2767 34.6858 1.4317
3140.00 1508.9103 1042.3227 34.6861 1.4272
3150.00 1509.0689 1042.3688 34.6864 1.4226
3160.00 1509.2274 1042.4148 34.6867 1.4181
3170.00 1509.3859 1042.4609 34.6871 1.4136
3180.00 1509.5444 1042.5069 34.6874 1.4090
3190.00 1509.7030 1042.5530 34.6877 1.4045
3200.00 1509.8615 1042.5990 34.6880 1.3999
3210.00 1510.0200 1042.6451 34.6883 1.3954
3220.00 1510.1786 1042.6912 34.6887 1.3909
3230.00 1510.3371 1042.7372 34.6890 1.3863
3240.00 1510.4956 1042.7833 34.6893 1.3818
3250.00 1510.6542 1042.8293 34.6896 1.3773
3260.00 1510.8127 1042.8754 34.6899 1.3727
3270.00 1510.9712 1042.9214 34.6903 1.3682
3280.00 1511.1311 1042.9673 34.6906 1.3638
3290.00 1511.2921 1043.0131 34.6908 1.3596
3300.00 1511.4530 1043.0589 34.6911 1.3553
3310.00 1511.6139 1043.1047 34.6914 1.3510
3320.00 1511.7749 1043.1505 34.6917 1.3468
3330.00 1511.9358 1043.1963 34.6920 1.3425
3340.00 1512.0967 1043.2421 34.6923 1.3383
3350.00 1512.2577 1043.2879 34.6925 1.3340
3360.00 1512.4186 1043.3337 34.6928 1.3297
3370.00 1512.5796 1043.3795 34.6931 1.3255
3380.00 1512.7405 1043.4253 34.6934 1.3212
3390.00 1512.9014 1043.4711 34.6937 1.3170
3400.00 1513.0624 1043.5169 34.6940 1.3127
3410.00 1513.2233 1043.5627 34.6942 1.3084
3420.00 1513.3842 1043.6085 34.6945 1.3042
3430.00 1513.5452 1043.6543 34.6948 1.2999
3440.00 1513.7061 1043.7001 34.6951 1.2957
3450.00 1513.8670 1043.7459 34.6954 1.2914
3460.00 1514.0280 1043.7917 34.6957 1.2872
3470.00 1514.1889 1043.8375 34.6959 1.2829
3480.00 1514.3498 1043.8833 34.6962 1.2786
3490.00 1514.5108 1043.9291 34.6965 1.2744
3500.00 1514.6717 1043.9749 34.6968 1.2701
3510.00 1514.8326 1044.0207 34.6971 1.2659
3520.00 1514.9936 1044.0665 34.6973 1.2616
3530.00 1515.1545 1044.1123 34.6976 1.2573
3540.00 1515.3155 1044.1581 34.6979 1.2531
3550.00 1515.4764 1044.2039 34.6982 1.2488
3560.00 1515.6373 1044.2497 34.6985 1.2446
3570.00 1515.7983 1044.2955 34.6988 1.2403
3580.00 1515.9592 1044.3413 34.6990 1.2360
3590.00 1516.1208 1044.3870 34.6993 1.2317
3600.00 1516.2825 1044.4326 34.6996 1.2273
3610.00 1516.4441 1044.4782 34.6998 1.2229
3620.00 1516.6058 1044.5238 34.7001 1.2186
3630.00 1516.7675 1044.5694 34.7003 1.2142
3640.00 1516.9291 1044.6150 34.7006 1.2098
3650.00 1517.0908 1044.6606 34.7008 1.2054
3660.00 1517.2525 1044.7062 34.7011 1.2010
3670.00 1517.4142 1044.7519 34.7013 1.1967
3680.00 1517.5758 1044.7975 34.7016 1.1923
3690.00 1517.7375 1044.8431 34.7018 1.1879
3700.00 1517.8992 1044.8887 34.7021 1.1835
3710.00 1518.0609 1044.9343 34.7024 1.1792
3720.00 1518.2225 1044.9799 34.7026 1.1748
3730.00 1518.3842 1045.0255 34.7029 1.1704
3740.00 1518.5459 1045.0711 34.7031 1.1660
3750.00 1518.7075 1045.1167 34.7034 1.1617
3760.00 1518.8692 1045.1624 34.7036 1.1573
3770.00 1519.0309 1045.2080 34.7039 1.1529
3780.00 1519.1926 1045.2536 34.7041 1.1485
3790.00 1519.3542 1045.2992 34.7044 1.1442
3800.00 1519.5159 1045.3448 34.7046 1.1398
3810.00 1519.6776 1045.3904 34.7049 1.1354
3820.00 1519.8393 1045.4360 34.7051 1.1310
3830.00 1520.0009 1045.4816 34.7054 1.1267
3840.00 1520.1626 1045.5272 34.7056 1.1223
3850.00 1520.3243 1045.5728 34.7059 1.1179
3860.00 1520.4860 1045.6185 34.7062 1.1135
3870.00 1520.6476 1045.6641 34.7064 1.1092
3880.00 1520.8093 1045.7097 34.7067 1.1048
3890.00 1520.9710 1045.7553 34.7069 1.1004
3900.00 1521.1326 1045.8009 34.7072 1.0960
3910.00 1521.2943 1045.8465 34.7074 1.0916
3920.00 1521.4552 1045.8920 34.7076 1.0869
3930.00 1521.6160 1045.9374 34.7078 1.0820
3940.00 1521.7768 1045.9829 34.7080 1.0771
3950.00 1521.9377 1046.0283 34.7082 1.0723
3960.00 1522.0985 1046.0738 34.7084 1.0674
3970.00 1522.2593 1046.1192 34.7086 1.0626
3980.00 1522.4201 1046.1647 34.7088 1.0577
3990.00 1522.5809 1046.2101 34.7090 1.0529
4000.00 1522.7417 1046.2556 34.7092 1.0480
4010.00 1522.9025 1046.3010 34.7094 1.0432
4020.00 1523.0633 1046.3465 34.7096 1.0383
4030.00 1523.2241 1046.3919 34.7097 1.0334
4040.00 1523.3849 1046.4374 34.7099 1.0286
4050.00 1523.5457 1046.4828 34.7101 1.0237
4060.00 1523.7065 1046.5283 34.7103 1.0189
4070.00 1523.8673 1046.5737 34.7105 1.0140
4080.00 1524.0281 1046.6192 34.7107 1.0092
4090.00 1524.1889 1046.6646 34.7109 1.0043
4100.00 1524.3498 1046.7101 34.7111 0.9995
4110.00 1524.5106 1046.7555 34.7113 0.9946
4120.00 1524.6714 1046.8010 34.7115 0.9898
4130.00 1524.8322 1046.8464 34.7117 0.9849
4140.00 1524.9930 1046.8919 34.7119 0.9800
4150.00 1525.1538 1046.9373 34.7121 0.9752
4160.00 1525.3146 1046.9828 34.7122 0.9703
4170.00 1525.4754 1047.0282 34.7124 0.9655
4180.00 1525.6362 1047.0737 34.7126 0.9606
4190.00 1525.7970 1047.1191 34.7128 0.9558
4200.00 1525.9578 1047.1646 34.7130 0.9509
4210.00 1526.1186 1047.2100 34.7132 0.9461
4220.00 1526.2794 1047.2555 34.7134 0.9412
4230.00 1526.4402 1047.3009 34.7136 0.9363
4240.00 1526.6011 1047.3464 34.7138 0.9315
4250.00 1526.7619 1047.3918 34.7140 0.9266
4260.00 1526.9227 1047.4373 34.7142 0.9218
4270.00 1527.0840 1047.4826 34.7143 0.9169
4280.00 1527.2458 1047.5277 34.7144 0.9120
4290.00 1527.4076 1047.5729 34.7145 0.9070
4300.00 1527.5694 1047.6181 34.7146 0.9021
4310.00 1527.7312 1047.6633 34.7147 0.8972
4320.00 1527.8929 1047.7084 34.7147 0.8923
4330.00 1528.0547 1047.7536 34.7148 0.8873
4340.00 1528.2165 1047.7988 34.7149 0.8824
4350.00 1528.3783 1047.8440 34.7150 0.8775
4360.00 1528.5401 1047.8892 34.7151 0.8726
4370.00 1528.7019 1047.9343 34.7152 0.8676
4380.00 1528.8636 1047.9795 34.7153 0.8627
4390.00 1529.0254 1048.0247 34.7154 0.8578
4400.00 1529.1872 1048.0699 34.7155 0.8529
4410.00 1529.3490 1048.1150 34.7155 0.8479
4420.00 1529.5108 1048.1602 34.7156 0.8430
4430.00 1529.6726 1048.2054 34.7157 0.8381
4440.00 1529.8343 1048.2506 34.7158 0.8332
4450.00 1529.9961 1048.2957 34.7159 0.8282
4460.00 1530.1579 1048.3409 34.7160 0.8233
4470.00 1530.3197 1048.3861 34.7161 0.8184
4480.00 1530.4815 1048.4313 34.7162 0.8135
4490.00 1530.6432 1048.4764 34.7163 0.8085
4500.00 1530.8050 1048.5216 34.7163 0.8036
4510.00 1530.9668 1048.5668 34.7164 0.7987
4520.00 1531.1286 1048.6120 34.7165 0.7938
4530.00 1531.2904 1048.6571 34.7166 0.7888
4540.00 1531.4522 1048.7023 34.7167 0.7839
4550.00 1531.6139 1048.7475 34.7168 0.7790
4560.00 1531.7757 1048.7927 34.7169 0.7741
4570.00 1531.9375 1048.8378 34.7170 0.7692
4580.00 1532.0993 1048.8830 34.7170 0.7642
4590.00 1532.2611 1048.9282 34.7171 0.7593
4600.00 1532.4229 1048.9734 34.7172 0.7544
4610.00 1532.5846 1049.0186 34.7173 0.7495
4620.00 1532.7464 1049.0637 34.7174 0.7445
4630.00 1532.9082 1049.1089 34.7175 0.7396
4640.00 1533.0700 1049.1541 34.7176 0.7347
4650.00 1533.2420 1049.1986 34.7176 0.7317
4660.00 1533.4144 1049.2431 34.7176 0.7289
4670.00 1533.5867 1049.2876 34.7176 0.7260
4680.00 1533.7590 1049.3321 34.7176 0.7231
4690.00 1533.9314 1049.3766 34.7176 0.7202
4700.00 1534.1037 1049.4210 34.7176 0.7174
4710.00 1534.2760 1049.4655 34.7176 0.7145
4720.00 1534.4483 1049.5100 34.7175 0.7116
4730.00 1534.6207 1049.5545 34.7175 0.7087
4740.00 1534.7930 1049.5990 34.7175 0.7058
4750.00 1534.9653 1049.6435 34.7175 0.7030
4760.00 1535.1377 1049.6880 34.7175 0.7001
4770.00 1535.3100 1049.7325 34.7175 0.6972
4780.00 1535.4823 1049.7770 34.7175 0.6943
4790.00 1535.6546 1049.8215 34.7175 0.6915
4800.00 1535.8270 1049.8660 34.7175 0.6886
4810.00 1535.9993 1049.9104 34.7175 0.6857
4820.00 1536.1716 1049.9549 34.7175 0.6828
4830.00 1536.3440 1049.9994 34.7175 0.6799
4840.00 1536.5163 1050.0439 34.7175 0.6771
4850.00 1536.6886 1050.0884 34.7175 0.6742
4860.00 1536.8609 1050.1329 34.7175 0.6713
4870.00 1537.0333 1050.1774 34.7175 0.6684
4880.00 1537.2056 1050.2219 34.7175 0.6656
4890.00 1537.3779 1050.2664 34.7175 0.6627
4900.00 1537.5503 1050.3109 34.7175 0.6598
4910.00 1537.7226 1050.3554 34.7175 0.6569
4920.00 1537.8949 1050.3998 34.7175 0.6540
4930.00 1538.0672 1050.4443 34.7175 0.6512
4940.00 1538.2396 1050.4888 34.7175 0.6483
4950.00 1538.4119 1050.5333 34.7175 0.6454
4960.00 1538.5842 1050.5778 34.7174 0.6425
4970.00 1538.7566 1050.6223 34.7174 0.6397
4980.00 1538.9289 1050.6668 34.7174 0.6368
4990.00 1539.1012 1050.7113 34.7174 0.6339
5000.00 1539.2736 1050.7558 34.7174 0.6310
5010.00 1539.4459 1050.8003 34.7174 0.6281
5020.00 1539.6182 1050.8448 34.7174 0.6253
5030.00 1539.7905 1050.8893 34.7174 0.6224
5040.00 1539.9639 1050.9337 34.7174 0.6197
5050.00 1540.1506 1050.9773 34.7174 0.6197
5060.00 1540.3372 1051.0210 34.7174 0.6197
5070.00 1540.5239 1051.0646 34.7174 0.6197
5080.00 1540.7105 1051.1083 34.7174 0.6197
5090.00 1540.8971 1051.1519 34.7174 0.6197
5100.00 1541.0838 1051.1956 34.7174 0.6197
5110.00 1541.2704 1051.2392 34.7174 0.6197
5120.00 1541.4570 1051.2829 34.7174 0.6197
5130.00 1541.6437 1051.3265 34.7174 0.6197
5140.00 1541.8303 1051.3702 34.7174 0.6197
5150.00 1542.0170 1051.4138 34.7174 0.6197
5160.00 1542.2036 1051.4575 34.7174 0.6197
5170.00 1542.3902 1051.5011 34.7174 0.6197
5180.00 1542.5769 1051.5448 34.7174 0.6197
5190.00 1542.7635 1051.5884 34.7174 0.6197
5200.00 1542.9501 1051.6320 34.7174 0.6197
