# Averages over distance (i) for each depth (k):
# Depth(m) Speed(m/s) Density(kg/m^3) Salt PSU Theta(degC)
0.00 1511.3938 1025.0074 34.2749 16.8090
10.00 1511.4686 1025.0579 34.2734 16.7782
20.00 1511.3953 1025.1181 34.2698 16.6993
30.00 1510.9407 1025.2023 34.2604 16.4976
40.00 1510.0013 1025.3163 34.2441 16.1420
50.00 1508.6556 1025.4535 34.2226 15.6611
60.00 1507.1018 1025.5997 34.1985 15.1213
70.00 1505.5254 1025.7430 34.1741 14.5821
80.00 1504.0542 1025.8760 34.1504 14.0826
90.00 1502.7397 1025.9957 34.1269 13.6372
100.00 1501.5793 1026.1028 34.1031 13.2436
110.00 1500.5615 1026.2003 34.0805 12.8962
120.00 1499.6473 1026.2924 34.0606 12.5815
130.00 1498.7608 1026.3846 34.0443 12.2763
140.00 1497.8529 1026.4806 34.0324 11.9653
150.00 1496.9421 1026.5871 34.0348 11.6515
160.00 1496.0783 1026.7006 34.0498 11.3488
170.00 1495.2526 1026.8198 34.0751 11.0551
180.00 1494.5585 1026.9431 34.1150 10.7962
190.00 1493.9061 1027.0678 34.1596 10.5484
200.00 1493.3493 1027.1881 34.2057 10.3284
210.00 1492.8785 1027.3046 34.2530 10.1335
220.00 1492.4077 1027.4211 34.3004 9.9386
230.00 1491.9941 1027.5247 34.3367 9.7653
240.00 1491.6016 1027.6234 34.3687 9.6000
250.00 1491.2092 1027.7221 34.4008 9.4348
260.00 1490.8101 1027.8158 34.4269 9.2705
270.00 1490.3916 1027.8947 34.4355 9.1090
280.00 1489.9730 1027.9736 34.4441 8.9475
290.00 1489.5544 1028.0525 34.4527 8.7860
300.00 1489.1355 1028.1314 34.4611 8.6244
310.00 1488.6708 1028.1979 34.4544 8.4591
320.00 1488.2061 1028.2645 34.4477 8.2939
330.00 1487.7414 1028.3310 34.4410 8.1286
340.00 1487.2767 1028.3976 34.4342 7.9633
350.00 1486.8120 1028.4641 34.4275 7.7980
360.00 1486.3939 1028.5243 34.4172 7.6493
370.00 1485.9793 1028.5840 34.4067 7.5019
380.00 1485.5646 1028.6437 34.3962 7.3545
390.00 1485.1500 1028.7034 34.3856 7.2071
400.00 1484.7354 1028.7631 34.3751 7.0597
410.00 1484.3218 1028.8228 34.3646 6.9125
420.00 1484.0617 1028.8778 34.3569 6.8064
430.00 1483.8016 1028.9329 34.3491 6.7003
440.00 1483.5414 1028.9880 34.3414 6.5942
450.00 1483.2813 1029.0430 34.3337 6.4880
460.00 1483.0212 1029.0981 34.3259 6.3819
470.00 1482.7610 1029.1532 34.3182 6.2758
480.00 1482.5375 1029.2077 34.3116 6.1788
490.00 1482.4218 1029.2608 34.3082 6.1090
500.00 1482.3062 1029.3138 34.3048 6.0392
510.00 1482.1906 1029.3668 34.3014 5.9694
520.00 1482.0749 1029.4199 34.2981 5.8996
530.00 1481.9593 1029.4729 34.2947 5.8298
540.00 1481.8437 1029.5260 34.2913 5.7600
550.00 1481.7280 1029.5790 34.2879 5.6902
560.00 1481.6660 1029.6320 34.2869 5.6335
570.00 1481.6238 1029.6850 34.2868 5.5816
580.00 1481.5816 1029.7380 34.2866 5.5296
590.00 1481.5395 1029.7911 34.2865 5.4777
600.00 1481.4973 1029.8441 34.2863 5.4258
610.00 1481.4551 1029.8971 34.2862 5.3739
620.00 1481.4130 1029.9501 34.2860 5.3220
630.00 1481.3708 1030.0031 34.2859 5.2701
640.00 1481.3405 1030.0565 34.2868 5.2210
650.00 1481.3208 1030.1103 34.2886 5.1745
660.00 1481.3011 1030.1641 34.2905 5.1279
670.00 1481.2814 1030.2179 34.2923 5.0814
680.00 1481.2617 1030.2717 34.2942 5.0348
690.00 1481.2420 1030.3255 34.2960 4.9883
700.00 1481.2223 1030.3793 34.2978 4.9417
710.00 1481.2027 1030.4331 34.2997 4.8952
720.00 1481.1830 1030.4868 34.3015 4.8486
730.00 1481.1699 1030.5412 34.3045 4.8036
740.00 1481.1589 1030.5958 34.3077 4.7591
750.00 1481.1479 1030.6504 34.3110 4.7147
760.00 1481.1369 1030.7050 34.3143 4.6702
770.00 1481.1260 1030.7596 34.3176 4.6257
780.00 1481.1150 1030.8142 34.3208 4.5812
790.00 1481.1040 1030.8688 34.3241 4.5368
800.00 1481.0930 1030.9234 34.3274 4.4923
810.00 1481.0820 1030.9779 34.3307 4.4478
820.00 1481.0805 1031.0327 34.3346 4.4056
830.00 1481.0866 1031.0876 34.3390 4.3652
840.00 1481.0927 1031.1425 34.3434 4.3249
850.00 1481.0988 1031.1974 34.3478 4.2845
860.00 1481.1050 1031.2523 34.3522 4.2442
870.00 1481.1111 1031.3072 34.3566 4.2038
880.00 1481.1172 1031.3621 34.3610 4.1634
890.00 1481.1233 1031.4170 34.3655 4.1231
900.00 1481.1294 1031.4719 34.3699 4.0827
910.00 1481.1364 1031.5268 34.3743 4.0425
920.00 1481.1736 1031.5810 34.3791 4.0097
930.00 1481.2108 1031.6353 34.3839 3.9769
940.00 1481.2480 1031.6895 34.3887 3.9440
950.00 1481.2852 1031.7437 34.3935 3.9112
960.00 1481.3224 1031.7979 34.3984 3.8784
970.00 1481.3596 1031.8522 34.4032 3.8455
980.00 1481.3968 1031.9064 34.4080 3.8127
990.00 1481.4341 1031.9606 34.4128 3.7798
1000.00 1481.4713 1032.0148 34.4176 3.7470
1010.00 1481.5169 1032.0687 34.4223 3.7162
1020.00 1481.5836 1032.1216 34.4267 3.6906
1030.00 1481.6502 1032.1745 34.4310 3.6650
1040.00 1481.7169 1032.2275 34.4354 3.6394
1050.00 1481.7836 1032.2804 34.4397 3.6138
1060.00 1481.8503 1032.3333 34.4441 3.5882
1070.00 1481.9170 1032.3862 34.4484 3.5626
1080.00 1481.9837 1032.4392 34.4528 3.5370
1090.00 1482.0504 1032.4921 34.4571 3.5114
1100.00 1482.1171 1032.5450 34.4615 3.4858
1110.00 1482.1905 1032.5974 34.4655 3.4619
1120.00 1482.2735 1032.6492 34.4690 3.4405
1130.00 1482.3566 1032.7009 34.4726 3.4190
1140.00 1482.4397 1032.7526 34.4761 3.3976
1150.00 1482.5228 1032.8044 34.4796 3.3761
1160.00 1482.6059 1032.8561 34.4832 3.3547
1170.00 1482.6889 1032.9078 34.4867 3.3332
1180.00 1482.7720 1032.9596 34.4903 3.3118
1190.00 1482.8551 1033.0113 34.4938 3.2903
1200.00 1482.9382 1033.0630 34.4973 3.2689
1210.00 1483.0246 1033.1144 34.5006 3.2484
1220.00 1483.1153 1033.1652 34.5034 3.2289
1230.00 1483.2059 1033.2161 34.5062 3.2095
1240.00 1483.2966 1033.2670 34.5090 3.1900
1250.00 1483.3872 1033.3179 34.5118 3.1706
1260.00 1483.4779 1033.3688 34.5147 3.1512
1270.00 1483.5685 1033.4196 34.5175 3.1317
1280.00 1483.6592 1033.4705 34.5203 3.1123
1290.00 1483.7498 1033.5214 34.5231 3.0929
1300.00 1483.8405 1033.5723 34.5259 3.0734
1310.00 1483.9328 1033.6229 34.5286 3.0545
1320.00 1484.0279 1033.6732 34.5309 3.0362
1330.00 1484.1231 1033.7235 34.5332 3.0180
1340.00 1484.2182 1033.7738 34.5355 2.9997
1350.00 1484.3133 1033.8241 34.5379 2.9815
1360.00 1484.4085 1033.8744 34.5402 2.9633
1370.00 1484.5036 1033.9248 34.5425 2.9450
1380.00 1484.5987 1033.9751 34.5448 2.9268
1390.00 1484.6938 1034.0254 34.5471 2.9086
1400.00 1484.7890 1034.0757 34.5495 2.8903
1410.00 1484.8844 1034.1259 34.5518 2.8722
1420.00 1484.9835 1034.1758 34.5537 2.8549
1430.00 1485.0825 1034.2257 34.5557 2.8377
1440.00 1485.1815 1034.2756 34.5577 2.8205
1450.00 1485.2806 1034.3254 34.5597 2.8032
1460.00 1485.3796 1034.3753 34.5617 2.7860
1470.00 1485.4787 1034.4252 34.5636 2.7687
1480.00 1485.5777 1034.4751 34.5656 2.7515
1490.00 1485.6767 1034.5250 34.5676 2.7343
1500.00 1485.7758 1034.5748 34.5696 2.7170
1510.00 1485.8748 1034.6247 34.5716 2.6998
1520.00 1485.9753 1034.6745 34.5735 2.6829
1530.00 1486.0792 1034.7239 34.5752 2.6668
1540.00 1486.1831 1034.7734 34.5769 2.6508
1550.00 1486.2870 1034.8228 34.5786 2.6347
1560.00 1486.3909 1034.8723 34.5803 2.6187
1570.00 1486.4948 1034.9218 34.5820 2.6026
1580.00 1486.5988 1034.9712 34.5837 2.5866
1590.00 1486.7027 1035.0207 34.5854 2.5705
1600.00 1486.8066 1035.0702 34.5871 2.5545
1610.00 1486.9105 1035.1196 34.5888 2.5384
1620.00 1487.0144 1035.1691 34.5905 2.5224
1630.00 1487.1183 1035.2185 34.5922 2.5063
1640.00 1487.2264 1035.2677 34.5937 2.4912
1650.00 1487.3376 1035.3167 34.5951 2.4769
1660.00 1487.4487 1035.3657 34.5966 2.4625
1670.00 1487.5598 1035.4147 34.5980 2.4481
1680.00 1487.6710 1035.4637 34.5994 2.4338
1690.00 1487.7821 1035.5127 34.6009 2.4194
1700.00 1487.8932 1035.5617 34.6023 2.4050
1710.00 1488.0044 1035.6107 34.6037 2.3907
1720.00 1488.1155 1035.6597 34.6052 2.3763
1730.00 1488.2267 1035.7087 34.6066 2.3619
1740.00 1488.3378 1035.7577 34.6080 2.3476
1750.00 1488.4489 1035.8067 34.6095 2.3332
1760.00 1488.5601 1035.8557 34.6109 2.3188
1770.00 1488.6758 1035.9044 34.6122 2.3055
1780.00 1488.7964 1035.9529 34.6133 2.2933
1790.00 1488.9170 1036.0014 34.6145 2.2811
1800.00 1489.0376 1036.0498 34.6157 2.2689
1810.00 1489.1582 1036.0983 34.6168 2.2567
1820.00 1489.2788 1036.1467 34.6180 2.2445
1830.00 1489.3995 1036.1952 34.6192 2.2323
1840.00 1489.5201 1036.2437 34.6203 2.2201
1850.00 1489.6407 1036.2921 34.6215 2.2079
1860.00 1489.7613 1036.3406 34.6227 2.1957
1870.00 1489.8819 1036.3890 34.6238 2.1834
1880.00 1490.0025 1036.4375 34.6250 2.1712
1890.00 1490.1231 1036.4860 34.6262 2.1590
1900.00 1490.2437 1036.5344 34.6273 2.1468
1910.00 1490.3643 1036.5829 34.6285 2.1346
1920.00 1490.4912 1036.6310 34.6295 2.1238
1930.00 1490.6225 1036.6789 34.6304 2.1140
1940.00 1490.7538 1036.7268 34.6313 2.1042
1950.00 1490.8851 1036.7747 34.6323 2.0943
1960.00 1491.0165 1036.8226 34.6332 2.0845
1970.00 1491.1478 1036.8705 34.6341 2.0747
1980.00 1491.2791 1036.9184 34.6350 2.0649
1990.00 1491.4104 1036.9663 34.6359 2.0551
2000.00 1491.5417 1037.0142 34.6369 2.0452
2010.00 1491.6730 1037.0621 34.6378 2.0354
2020.00 1491.8044 1037.1099 34.6387 2.0256
2030.00 1491.9357 1037.1578 34.6396 2.0158
2040.00 1492.0670 1037.2057 34.6406 2.0060
2050.00 1492.1983 1037.2536 34.6415 1.9961
2060.00 1492.3296 1037.3015 34.6424 1.9863
2070.00 1492.4609 1037.3494 34.6433 1.9765
2080.00 1492.5923 1037.3973 34.6442 1.9667
2090.00 1492.7299 1037.4449 34.6450 1.9582
2100.00 1492.8717 1037.4922 34.6457 1.9507
2110.00 1493.0136 1037.5396 34.6464 1.9432
2120.00 1493.1555 1037.5869 34.6472 1.9357
2130.00 1493.2974 1037.6342 34.6479 1.9281
2140.00 1493.4392 1037.6816 34.6486 1.9206
2150.00 1493.5811 1037.7289 34.6493 1.9131
2160.00 1493.7230 1037.7763 34.6500 1.9056
2170.00 1493.8648 1037.8236 34.6507 1.8980
2180.00 1494.0067 1037.8709 34.6514 1.8905
2190.00 1494.1486 1037.9183 34.6521 1.8830
2200.00 1494.2904 1037.9656 34.6528 1.8754
2210.00 1494.4323 1038.0130 34.6535 1.8679
2220.00 1494.5742 1038.0603 34.6542 1.8604
2230.00 1494.7160 1038.1076 34.6550 1.8529
2240.00 1494.8579 1038.1550 34.6557 1.8453
2250.00 1494.9998 1038.2023 34.6564 1.8378
2260.00 1495.1416 1038.2497 34.6571 1.8303
2270.00 1495.2835 1038.2970 34.6578 1.8228
2280.00 1495.4289 1038.3441 34.6584 1.8160
2290.00 1495.5802 1038.3910 34.6590 1.8104
2300.00 1495.7314 1038.4378 34.6595 1.8049
2310.00 1495.8827 1038.4846 34.6600 1.7993
2320.00 1496.0339 1038.5314 34.6606 1.7938
2330.00 1496.1851 1038.5783 34.6611 1.7882
2340.00 1496.3364 1038.6251 34.6616 1.7827
2350.00 1496.4876 1038.6719 34.6621 1.7771
2360.00 1496.6389 1038.7187 34.6627 1.7716
2370.00 1496.7901 1038.7656 34.6632 1.7660
2380.00 1496.9414 1038.8124 34.6637 1.7605
2390.00 1497.0926 1038.8592 34.6643 1.7549
2400.00 1497.2439 1038.9060 34.6648 1.7494
