# Averages over distance (i) for each depth (k):
# Depth(m) Speed(m/s) Density(kg/m^3) Salt PSU Theta(degC)
0.00 1511.9417 1024.9908 34.3053 16.9784
10.00 1512.0174 1025.0413 34.3038 16.9478
20.00 1511.9444 1025.1016 34.3001 16.8686
30.00 1511.4885 1025.1860 34.2901 16.6658
40.00 1510.5495 1025.2998 34.2727 16.3091
50.00 1509.2125 1025.4363 34.2497 15.8294
60.00 1507.6777 1025.5812 34.2239 15.2939
70.00 1506.1292 1025.7228 34.1981 14.7615
80.00 1504.6920 1025.8538 34.1732 14.2706
90.00 1503.4150 1025.9715 34.1487 13.8349
100.00 1502.2877 1026.0770 34.1241 13.4496
110.00 1501.2786 1026.1738 34.1000 13.1035
120.00 1500.3388 1026.2664 34.0778 12.7804
130.00 1499.4043 1026.3597 34.0585 12.4605
140.00 1498.4408 1026.4568 34.0433 12.1330
150.00 1497.4855 1026.5632 34.0418 11.8064
160.00 1496.5864 1026.6758 34.0527 11.4939
170.00 1495.7329 1026.7934 34.0737 11.1926
180.00 1495.0146 1026.9154 34.1100 10.9273
190.00 1494.3391 1027.0388 34.1511 10.6733
200.00 1493.7559 1027.1591 34.1952 10.4460
210.00 1493.2559 1027.2768 34.2419 10.2426
220.00 1492.7559 1027.3944 34.2886 10.0393
230.00 1492.3120 1027.5004 34.3258 9.8569
240.00 1491.8889 1027.6021 34.3595 9.6823
250.00 1491.4658 1027.7037 34.3932 9.5077
260.00 1491.0389 1027.8002 34.4209 9.3349
270.00 1490.6007 1027.8815 34.4311 9.1673
280.00 1490.1625 1027.9627 34.4412 8.9998
290.00 1489.7243 1028.0439 34.4514 8.8322
300.00 1489.2859 1028.1251 34.4614 8.6646
310.00 1488.8169 1028.1923 34.4552 8.4979
320.00 1488.3479 1028.2596 34.4491 8.3311
330.00 1487.8790 1028.3269 34.4429 8.1643
340.00 1487.4100 1028.3942 34.4367 7.9976
350.00 1486.9410 1028.4614 34.4306 7.8308
360.00 1486.5205 1028.5218 34.4204 7.6814
370.00 1486.1035 1028.5818 34.4099 7.5332
380.00 1485.6865 1028.6417 34.3995 7.3850
390.00 1485.2695 1028.7016 34.3890 7.2369
400.00 1484.8525 1028.7615 34.3785 7.0887
410.00 1484.4366 1028.8214 34.3681 6.9408
420.00 1484.1721 1028.8765 34.3603 6.8336
430.00 1483.9077 1028.9317 34.3524 6.7263
440.00 1483.6432 1028.9869 34.3446 6.6190
450.00 1483.3787 1029.0420 34.3368 6.5118
460.00 1483.1143 1029.0972 34.3290 6.4045
470.00 1482.8498 1029.1524 34.3211 6.2972
480.00 1482.6221 1029.2070 34.3144 6.1992
490.00 1482.5030 1029.2601 34.3109 6.1285
500.00 1482.3838 1029.3132 34.3074 6.0579
510.00 1482.2647 1029.3663 34.3040 5.9872
520.00 1482.1456 1029.4194 34.3005 5.9165
530.00 1482.0265 1029.4725 34.2970 5.8459
540.00 1481.9073 1029.5256 34.2935 5.7752
550.00 1481.7882 1029.5787 34.2900 5.7045
560.00 1481.7239 1029.6317 34.2889 5.6472
570.00 1481.6800 1029.6847 34.2887 5.5949
580.00 1481.6361 1029.7378 34.2885 5.5426
590.00 1481.5922 1029.7908 34.2883 5.4902
600.00 1481.5483 1029.8438 34.2881 5.4379
610.00 1481.5044 1029.8968 34.2879 5.3856
620.00 1481.4605 1029.9499 34.2877 5.3332
630.00 1481.4166 1030.0029 34.2875 5.2809
640.00 1481.3850 1030.0563 34.2884 5.2315
650.00 1481.3645 1030.1102 34.2903 5.1847
660.00 1481.3440 1030.1640 34.2921 5.1380
670.00 1481.3235 1030.2178 34.2939 5.0912
680.00 1481.3030 1030.2716 34.2958 5.0444
690.00 1481.2825 1030.3254 34.2976 4.9977
700.00 1481.2620 1030.3792 34.2995 4.9509
710.00 1481.2415 1030.4331 34.3013 4.9042
720.00 1481.2210 1030.4869 34.3031 4.8574
730.00 1481.2072 1030.5413 34.3061 4.8122
740.00 1481.1955 1030.5960 34.3094 4.7676
750.00 1481.1838 1030.6506 34.3127 4.7229
760.00 1481.1721 1030.7053 34.3161 4.6782
770.00 1481.1604 1030.7599 34.3194 4.6335
780.00 1481.1486 1030.8146 34.3227 4.5889
790.00 1481.1369 1030.8692 34.3260 4.5442
800.00 1481.1252 1030.9239 34.3293 4.4995
810.00 1481.1135 1030.9785 34.3327 4.4548
820.00 1481.1117 1031.0333 34.3366 4.4125
830.00 1481.1179 1031.0883 34.3411 4.3722
840.00 1481.1240 1031.1432 34.3455 4.3318
850.00 1481.1302 1031.1981 34.3500 4.2914
860.00 1481.1364 1031.2531 34.3544 4.2511
870.00 1481.1426 1031.3080 34.3589 4.2107
880.00 1481.1488 1031.3629 34.3633 4.1703
890.00 1481.1550 1031.4179 34.3678 4.1300
900.00 1481.1612 1031.4728 34.3722 4.0896
910.00 1481.1682 1031.5277 34.3767 4.0494
920.00 1481.2061 1031.5819 34.3815 4.0168
930.00 1481.2440 1031.6361 34.3863 3.9841
940.00 1481.2819 1031.6903 34.3911 3.9514
950.00 1481.3198 1031.7445 34.3959 3.9187
960.00 1481.3577 1031.7987 34.4008 3.8861
970.00 1481.3956 1031.8529 34.4056 3.8534
980.00 1481.4335 1031.9071 34.4104 3.8207
990.00 1481.4714 1031.9614 34.4152 3.7880
1000.00 1481.5093 1032.0156 34.4200 3.7553
1010.00 1481.5554 1032.0694 34.4247 3.7247
1020.00 1481.6221 1032.1223 34.4290 3.6991
1030.00 1481.6887 1032.1751 34.4333 3.6735
1040.00 1481.7554 1032.2280 34.4376 3.6479
1050.00 1481.8220 1032.2809 34.4419 3.6223
1060.00 1481.8887 1032.3338 34.4462 3.5967
1070.00 1481.9554 1032.3867 34.4505 3.5711
1080.00 1482.0220 1032.4396 34.4548 3.5455
1090.00 1482.0887 1032.4924 34.4591 3.5199
1100.00 1482.1553 1032.5453 34.4634 3.4943
1110.00 1482.2283 1032.5977 34.4674 3.4703
1120.00 1482.3105 1032.6494 34.4708 3.4487
1130.00 1482.3927 1032.7011 34.4743 3.4271
1140.00 1482.4749 1032.7528 34.4778 3.4054
1150.00 1482.5571 1032.8045 34.4813 3.3838
1160.00 1482.6393 1032.8562 34.4848 3.3621
1170.00 1482.7215 1032.9079 34.4882 3.3405
1180.00 1482.8036 1032.9597 34.4917 3.3189
1190.00 1482.8858 1033.0114 34.4952 3.2972
1200.00 1482.9680 1033.0631 34.4987 3.2756
1210.00 1483.0535 1033.1144 34.5018 3.2548
1220.00 1483.1432 1033.1653 34.5046 3.2352
1230.00 1483.2329 1033.2161 34.5074 3.2155
1240.00 1483.3225 1033.2670 34.5102 3.1959
1250.00 1483.4122 1033.3179 34.5129 3.1762
1260.00 1483.5019 1033.3687 34.5157 3.1566
1270.00 1483.5916 1033.4196 34.5185 3.1369
1280.00 1483.6812 1033.4704 34.5212 3.1173
1290.00 1483.7709 1033.5213 34.5240 3.0976
1300.00 1483.8606 1033.5722 34.5268 3.0780
1310.00 1483.9520 1033.6228 34.5294 3.0588
1320.00 1484.0464 1033.6731 34.5317 3.0404
1330.00 1484.1408 1033.7234 34.5339 3.0220
1340.00 1484.2352 1033.7737 34.5362 3.0036
1350.00 1484.3296 1033.8240 34.5385 2.9852
1360.00 1484.4240 1033.8743 34.5408 2.9668
1370.00 1484.5184 1033.9246 34.5431 2.9484
1380.00 1484.6128 1033.9749 34.5454 2.9300
1390.00 1484.7072 1034.0252 34.5477 2.9116
1400.00 1484.8016 1034.0755 34.5500 2.8932
1410.00 1484.8963 1034.1258 34.5522 2.8749
1420.00 1484.9949 1034.1756 34.5542 2.8576
1430.00 1485.0935 1034.2255 34.5562 2.8402
1440.00 1485.1920 1034.2754 34.5581 2.8229
1450.00 1485.2906 1034.3253 34.5601 2.8056
1460.00 1485.3891 1034.3751 34.5620 2.7882
1470.00 1485.4877 1034.4250 34.5640 2.7709
1480.00 1485.5862 1034.4749 34.5660 2.7535
1490.00 1485.6848 1034.5248 34.5679 2.7362
1500.00 1485.7833 1034.5746 34.5699 2.7188
1510.00 1485.8819 1034.6245 34.5719 2.7015
1520.00 1485.9819 1034.6743 34.5737 2.6845
1530.00 1486.0855 1034.7237 34.5754 2.6684
1540.00 1486.1891 1034.7732 34.5771 2.6523
1550.00 1486.2927 1034.8227 34.5788 2.6361
1560.00 1486.3964 1034.8721 34.5805 2.6200
1570.00 1486.5000 1034.9216 34.5822 2.6039
1580.00 1486.6036 1034.9710 34.5839 2.5878
1590.00 1486.7072 1035.0205 34.5856 2.5717
1600.00 1486.8108 1035.0700 34.5873 2.5556
1610.00 1486.9144 1035.1194 34.5890 2.5394
1620.00 1487.0180 1035.1689 34.5907 2.5233
1630.00 1487.1217 1035.2183 34.5924 2.5072
1640.00 1487.2295 1035.2675 34.5939 2.4921
1650.00 1487.3405 1035.3165 34.5953 2.4777
1660.00 1487.4515 1035.3655 34.5967 2.4633
1670.00 1487.5624 1035.4145 34.5982 2.4489
1680.00 1487.6734 1035.4635 34.5996 2.4345
1690.00 1487.7844 1035.5125 34.6010 2.4201
1700.00 1487.8953 1035.5615 34.6024 2.4057
1710.00 1488.0063 1035.6105 34.6039 2.3913
1720.00 1488.1172 1035.6595 34.6053 2.3769
1730.00 1488.2282 1035.7085 34.6067 2.3624
1740.00 1488.3392 1035.7575 34.6081 2.3480
1750.00 1488.4501 1035.8065 34.6096 2.3336
1760.00 1488.5611 1035.8555 34.6110 2.3192
1770.00 1488.6767 1035.9042 34.6123 2.3059
1780.00 1488.7972 1035.9527 34.6134 2.2937
1790.00 1488.9177 1036.0011 34.6146 2.2814
1800.00 1489.0382 1036.0496 34.6158 2.2692
1810.00 1489.1586 1036.0981 34.6169 2.2570
1820.00 1489.2791 1036.1465 34.6181 2.2447
1830.00 1489.3996 1036.1950 34.6193 2.2325
1840.00 1489.5201 1036.2434 34.6204 2.2203
1850.00 1489.6406 1036.2919 34.6216 2.2081
1860.00 1489.7611 1036.3403 34.6227 2.1958
1870.00 1489.8816 1036.3888 34.6239 2.1836
1880.00 1490.0021 1036.4373 34.6251 2.1714
1890.00 1490.1226 1036.4857 34.6262 2.1591
1900.00 1490.2431 1036.5342 34.6274 2.1469
1910.00 1490.3636 1036.5826 34.6285 2.1347
1920.00 1490.4904 1036.6308 34.6296 2.1238
1930.00 1490.6217 1036.6787 34.6305 2.1140
1940.00 1490.7529 1036.7266 34.6314 2.1042
1950.00 1490.8842 1036.7744 34.6323 2.0944
1960.00 1491.0154 1036.8223 34.6332 2.0845
1970.00 1491.1467 1036.8702 34.6342 2.0747
1980.00 1491.2780 1036.9181 34.6351 2.0649
1990.00 1491.4092 1036.9660 34.6360 2.0550
2000.00 1491.5405 1037.0139 34.6369 2.0452
2010.00 1491.6718 1037.0618 34.6378 2.0354
2020.00 1491.8030 1037.1097 34.6387 2.0255
2030.00 1491.9343 1037.1576 34.6397 2.0157
2040.00 1492.0655 1037.2055 34.6406 2.0059
2050.00 1492.1968 1037.2534 34.6415 1.9961
