# Averages over distance (i) for each depth (k):
# Depth(m) Speed(m/s) Density(kg/m^3) Salt PSU Theta(degC)
0.00 1538.8862 1021.8959 34.0857 27.4218
10.00 1538.9854 1021.9558 34.0925 27.3861
20.00 1538.8732 1022.0752 34.1314 27.2398
30.00 1538.4912 1022.2695 34.2106 26.9538
40.00 1538.0143 1022.4825 34.2972 26.6246
50.00 1537.4594 1022.7011 34.3800 26.2665
60.00 1536.7932 1022.9314 34.4617 25.8649
70.00 1535.9324 1023.1871 34.5463 25.3843
80.00 1534.7775 1023.4737 34.6280 24.7894
90.00 1533.2837 1023.7832 34.6955 24.0732
100.00 1531.5112 1024.0977 34.7412 23.2706
110.00 1529.5726 1024.4031 34.7672 22.4307
120.00 1527.5521 1024.6936 34.7791 21.5860
130.00 1525.5076 1024.9660 34.7799 20.7567
140.00 1523.4802 1025.2192 34.7716 19.9547
150.00 1521.5676 1025.4416 34.7545 19.2202
160.00 1519.7631 1025.6451 34.7345 18.5368
170.00 1518.0459 1025.8333 34.7120 17.8946
180.00 1516.5326 1025.9955 34.6882 17.3367
190.00 1515.0837 1026.1494 34.6640 16.8053
200.00 1513.7573 1026.2896 34.6403 16.3225
210.00 1512.5413 1026.4174 34.6169 15.8835
220.00 1511.3252 1026.5452 34.5936 15.4444
230.00 1510.2400 1026.6601 34.5724 15.0561
240.00 1509.2034 1026.7702 34.5520 14.6867
250.00 1508.1667 1026.8803 34.5315 14.3173
260.00 1507.1693 1026.9871 34.5123 13.9625
270.00 1506.2875 1027.0845 34.4963 13.6508
280.00 1505.4056 1027.1819 34.4804 13.3391
290.00 1504.5238 1027.2792 34.4644 13.0275
300.00 1503.6427 1027.3766 34.4485 12.7161
310.00 1502.8671 1027.4661 34.4373 12.4446
320.00 1502.0916 1027.5556 34.4260 12.1731
330.00 1501.3161 1027.6452 34.4147 11.9017
340.00 1500.5406 1027.7347 34.4035 11.6302
350.00 1499.7650 1027.8243 34.3922 11.3588
360.00 1499.0755 1027.9089 34.3859 11.1188
370.00 1498.3922 1027.9931 34.3799 10.8811
380.00 1497.7089 1028.0773 34.3739 10.6434
390.00 1497.0256 1028.1616 34.3679 10.4057
400.00 1496.3423 1028.2458 34.3620 10.1680
410.00 1495.6600 1028.3300 34.3560 9.9306
420.00 1495.1167 1028.4081 34.3554 9.7373
430.00 1494.5734 1028.4861 34.3547 9.5440
440.00 1494.0301 1028.5642 34.3541 9.3506
450.00 1493.4867 1028.6422 34.3534 9.1573
460.00 1492.9434 1028.7203 34.3527 8.9640
470.00 1492.4001 1028.7983 34.3521 8.7707
480.00 1491.8917 1028.8748 34.3522 8.5878
490.00 1491.4866 1028.9466 34.3544 8.4359
500.00 1491.0815 1029.0184 34.3567 8.2840
510.00 1490.6763 1029.0902 34.3590 8.1320
520.00 1490.2712 1029.1620 34.3612 7.9801
530.00 1489.8661 1029.2338 34.3635 7.8281
540.00 1489.4609 1029.3056 34.3658 7.6762
550.00 1489.0558 1029.3774 34.3680 7.5243
560.00 1488.7142 1029.4455 34.3705 7.3915
570.00 1488.3961 1029.5122 34.3730 7.2660
580.00 1488.0780 1029.5789 34.3755 7.1404
590.00 1487.7600 1029.6457 34.3781 7.0148
600.00 1487.4419 1029.7124 34.3806 6.8893
610.00 1487.1238 1029.7791 34.3831 6.7637
620.00 1486.8058 1029.8459 34.3856 6.6382
630.00 1486.4877 1029.9126 34.3882 6.5126
640.00 1486.2269 1029.9770 34.3911 6.4028
650.00 1486.0176 1030.0393 34.3945 6.3071
660.00 1485.8082 1030.1016 34.3979 6.2113
670.00 1485.5989 1030.1639 34.4013 6.1156
680.00 1485.3896 1030.2262 34.4047 6.0199
690.00 1485.1803 1030.2884 34.4081 5.9242
700.00 1484.9710 1030.3507 34.4115 5.8285
710.00 1484.7616 1030.4130 34.4149 5.7328
720.00 1484.5523 1030.4753 34.4182 5.6371
730.00 1484.4060 1030.5355 34.4223 5.5580
740.00 1484.2795 1030.5951 34.4267 5.4842
750.00 1484.1531 1030.6547 34.4310 5.4103
760.00 1484.0267 1030.7142 34.4353 5.3364
770.00 1483.9002 1030.7738 34.4397 5.2625
780.00 1483.7738 1030.8334 34.4440 5.1887
790.00 1483.6474 1030.8930 34.4483 5.1148
800.00 1483.5209 1030.9525 34.4527 5.0409
810.00 1483.3945 1031.0121 34.4570 4.9671
820.00 1483.3071 1031.0700 34.4610 4.9033
830.00 1483.2513 1031.1264 34.4648 4.8478
840.00 1483.1954 1031.1829 34.4686 4.7922
850.00 1483.1396 1031.2394 34.4724 4.7367
860.00 1483.0838 1031.2959 34.4762 4.6811
870.00 1483.0279 1031.3523 34.4799 4.6255
880.00 1482.9721 1031.4088 34.4837 4.5700
890.00 1482.9163 1031.4653 34.4875 4.5144
900.00 1482.8605 1031.5218 34.4913 4.4589
910.00 1482.8057 1031.5782 34.4951 4.4036
920.00 1482.7909 1031.6324 34.4979 4.3587
930.00 1482.7762 1031.6867 34.5008 4.3139
940.00 1482.7614 1031.7409 34.5036 4.2691
950.00 1482.7466 1031.7952 34.5065 4.2242
960.00 1482.7318 1031.8494 34.5093 4.1794
970.00 1482.7171 1031.9036 34.5122 4.1345
980.00 1482.7023 1031.9579 34.5150 4.0897
990.00 1482.6875 1032.0121 34.5179 4.0448
1000.00 1482.6727 1032.0663 34.5207 4.0000
1010.00 1482.6643 1032.1201 34.5233 3.9568
1020.00 1482.6720 1032.1728 34.5252 3.9180
1030.00 1482.6796 1032.2254 34.5272 3.8791
1040.00 1482.6872 1032.2781 34.5291 3.8403
1050.00 1482.6948 1032.3307 34.5310 3.8014
1060.00 1482.7025 1032.3834 34.5329 3.7626
1070.00 1482.7101 1032.4360 34.5348 3.7237
1080.00 1482.7177 1032.4887 34.5367 3.6849
1090.00 1482.7253 1032.5413 34.5386 3.6460
1100.00 1482.7330 1032.5940 34.5405 3.6071
1110.00 1482.7528 1032.6460 34.5422 3.5714
1120.00 1482.7904 1032.6971 34.5434 3.5400
1130.00 1482.8280 1032.7483 34.5447 3.5086
1140.00 1482.8655 1032.7994 34.5459 3.4772
1150.00 1482.9031 1032.8505 34.5472 3.4459
1160.00 1482.9406 1032.9016 34.5484 3.4145
1170.00 1482.9782 1032.9528 34.5497 3.3831
1180.00 1483.0157 1033.0039 34.5509 3.3518
1190.00 1483.0533 1033.0550 34.5522 3.3204
1200.00 1483.0909 1033.1061 34.5534 3.2890
1210.00 1483.1395 1033.1569 34.5546 3.2603
1220.00 1483.2020 1033.2071 34.5557 3.2349
1230.00 1483.2645 1033.2574 34.5568 3.2095
1240.00 1483.3270 1033.3076 34.5579 3.1841
1250.00 1483.3895 1033.3579 34.5590 3.1587
1260.00 1483.4520 1033.4081 34.5601 3.1333
1270.00 1483.5144 1033.4584 34.5612 3.1079
1280.00 1483.5769 1033.5086 34.5623 3.0825
1290.00 1483.6394 1033.5588 34.5634 3.0571
1300.00 1483.7019 1033.6091 34.5644 3.0317
1310.00 1483.7705 1033.6591 34.5655 3.0078
1320.00 1483.8491 1033.7089 34.5667 2.9862
1330.00 1483.9276 1033.7586 34.5678 2.9646
1340.00 1484.0062 1033.8083 34.5689 2.9430
1350.00 1484.0848 1033.8581 34.5700 2.9214
1360.00 1484.1634 1033.9078 34.5711 2.8997
1370.00 1484.2420 1033.9575 34.5722 2.8781
1380.00 1484.3205 1034.0072 34.5733 2.8565
1390.00 1484.3991 1034.0570 34.5745 2.8349
1400.00 1484.4777 1034.1067 34.5756 2.8133
1410.00 1484.5574 1034.1564 34.5767 2.7920
1420.00 1484.6493 1034.2057 34.5778 2.7734
1430.00 1484.7412 1034.2551 34.5789 2.7549
1440.00 1484.8331 1034.3044 34.5801 2.7364
1450.00 1484.9251 1034.3537 34.5812 2.7178
1460.00 1485.0170 1034.4030 34.5823 2.6993
1470.00 1485.1089 1034.4524 34.5834 2.6808
1480.00 1485.2008 1034.5017 34.5846 2.6623
1490.00 1485.2927 1034.5510 34.5857 2.6437
1500.00 1485.3846 1034.6004 34.5868 2.6252
1510.00 1485.4765 1034.6497 34.5880 2.6067
1520.00 1485.5718 1034.6989 34.5891 2.5889
1530.00 1485.6755 1034.7478 34.5902 2.5731
1540.00 1485.7791 1034.7967 34.5913 2.5572
1550.00 1485.8827 1034.8456 34.5924 2.5414
1560.00 1485.9864 1034.8946 34.5935 2.5255
1570.00 1486.0900 1034.9435 34.5946 2.5097
1580.00 1486.1936 1034.9924 34.5957 2.4938
1590.00 1486.2973 1035.0413 34.5967 2.4780
1600.00 1486.4009 1035.0902 34.5978 2.4621
1610.00 1486.5045 1035.1391 34.5989 2.4463
1620.00 1486.6082 1035.1880 34.6000 2.4304
1630.00 1486.7118 1035.2369 34.6011 2.4146
1640.00 1486.8227 1035.2856 34.6021 2.4004
1650.00 1486.9388 1035.3340 34.6031 2.3873
1660.00 1487.0549 1035.3824 34.6041 2.3743
1670.00 1487.1709 1035.4308 34.6050 2.3613
1680.00 1487.2870 1035.4792 34.6060 2.3483
1690.00 1487.4031 1035.5276 34.6070 2.3352
1700.00 1487.5192 1035.5760 34.6079 2.3222
1710.00 1487.6353 1035.6244 34.6089 2.3092
1720.00 1487.7514 1035.6728 34.6098 2.2962
1730.00 1487.8674 1035.7213 34.6108 2.2831
1740.00 1487.9835 1035.7697 34.6118 2.2701
1750.00 1488.0996 1035.8181 34.6127 2.2571
1760.00 1488.2157 1035.8665 34.6137 2.2441
1770.00 1488.3393 1035.9145 34.6145 2.2328
1780.00 1488.4709 1035.9622 34.6152 2.2232
1790.00 1488.6025 1036.0099 34.6159 2.2137
1800.00 1488.7341 1036.0576 34.6166 2.2042
1810.00 1488.8657 1036.1053 34.6173 2.1947
1820.00 1488.9973 1036.1530 34.6179 2.1852
1830.00 1489.1289 1036.2007 34.6186 2.1757
1840.00 1489.2605 1036.2484 34.6193 2.1662
1850.00 1489.3921 1036.2960 34.6200 2.1566
1860.00 1489.5237 1036.3437 34.6207 2.1471
1870.00 1489.6553 1036.3914 34.6214 2.1376
1880.00 1489.7869 1036.4391 34.6221 2.1281
1890.00 1489.9185 1036.4868 34.6228 2.1186
1900.00 1490.0501 1036.5345 34.6235 2.1091
1910.00 1490.1817 1036.5822 34.6242 2.0996
1920.00 1490.3237 1036.6294 34.6247 2.0924
1930.00 1490.4730 1036.6762 34.6250 2.0868
1940.00 1490.6224 1036.7230 34.6254 2.0813
1950.00 1490.7717 1036.7699 34.6258 2.0757
1960.00 1490.9210 1036.8167 34.6262 2.0702
1970.00 1491.0704 1036.8636 34.6265 2.0646
1980.00 1491.2197 1036.9104 34.6269 2.0591
1990.00 1491.3690 1036.9572 34.6273 2.0535
2000.00 1491.5184 1037.0041 34.6277 2.0480
2010.00 1491.6677 1037.0509 34.6280 2.0424
2020.00 1491.8170 1037.0977 34.6284 2.0369
2030.00 1491.9664 1037.1446 34.6288 2.0314
2040.00 1492.1157 1037.1914 34.6292 2.0258
2050.00 1492.2650 1037.2383 34.6295 2.0203
2060.00 1492.4144 1037.2851 34.6299 2.0147
2070.00 1492.5637 1037.3319 34.6303 2.0092
2080.00 1492.7130 1037.3788 34.6307 2.0036
2090.00 1492.8676 1037.4253 34.6310 1.9992
2100.00 1493.0258 1037.4717 34.6312 1.9955
2110.00 1493.1839 1037.5180 34.6314 1.9918
2120.00 1493.3421 1037.5644 34.6316 1.9882
2130.00 1493.5002 1037.6107 34.6319 1.9845
2140.00 1493.6584 1037.6571 34.6321 1.9808
2150.00 1493.8166 1037.7035 34.6323 1.9771
2160.00 1493.9747 1037.7498 34.6325 1.9734
2170.00 1494.1329 1037.7962 34.6328 1.9698
2180.00 1494.2910 1037.8425 34.6330 1.9661
2190.00 1494.4492 1037.8889 34.6332 1.9624
2200.00 1494.6073 1037.9352 34.6334 1.9587
2210.00 1494.7655 1037.9816 34.6337 1.9551
2220.00 1494.9237 1038.0279 34.6339 1.9514
2230.00 1495.0818 1038.0743 34.6341 1.9477
2240.00 1495.2400 1038.1207 34.6344 1.9440
2250.00 1495.3981 1038.1670 34.6346 1.9403
2260.00 1495.5563 1038.2134 34.6348 1.9367
2270.00 1495.7144 1038.2597 34.6350 1.9330
2280.00 1495.8760 1038.3059 34.6352 1.9300
2290.00 1496.0431 1038.3518 34.6353 1.9282
2300.00 1496.2102 1038.3976 34.6354 1.9264
2310.00 1496.3773 1038.4435 34.6355 1.9245
2320.00 1496.5444 1038.4894 34.6356 1.9227
2330.00 1496.7115 1038.5352 34.6357 1.9209
2340.00 1496.8786 1038.5811 34.6358 1.9191
2350.00 1497.0457 1038.6270 34.6359 1.9172
2360.00 1497.2128 1038.6728 34.6360 1.9154
2370.00 1497.3799 1038.7187 34.6361 1.9136
2380.00 1497.5470 1038.7646 34.6362 1.9118
2390.00 1497.7141 1038.8105 34.6363 1.9099
2400.00 1497.8812 1038.8563 34.6364 1.9081
2410.00 1498.0483 1038.9022 34.6365 1.9063
2420.00 1498.2154 1038.9481 34.6366 1.9045
2430.00 1498.3825 1038.9939 34.6367 1.9026
2440.00 1498.5496 1039.0398 34.6368 1.9008
2450.00 1498.7167 1039.0857 34.6369 1.8990
2460.00 1498.8838 1039.1315 34.6370 1.8972
2470.00 1499.0509 1039.1774 34.6371 1.8953
2480.00 1499.2180 1039.2233 34.6372 1.8935
2490.00 1499.3852 1039.2691 34.6373 1.8917
2500.00 1499.5571 1039.3147 34.6374 1.8908
2510.00 1499.7298 1039.3602 34.6374 1.8900
2520.00 1499.9025 1039.4057 34.6375 1.8893
2530.00 1500.0751 1039.4512 34.6375 1.8885
2540.00 1500.2478 1039.4967 34.6376 1.8877
2550.00 1500.4205 1039.5422 34.6376 1.8869
2560.00 1500.5932 1039.5877 34.6376 1.8862
2570.00 1500.7658 1039.6332 34.6377 1.8854
2580.00 1500.9385 1039.6787 34.6377 1.8846
2590.00 1501.1112 1039.7242 34.6378 1.8839
2600.00 1501.2838 1039.7697 34.6378 1.8831
2610.00 1501.4565 1039.8152 34.6378 1.8823
2620.00 1501.6292 1039.8607 34.6379 1.8816
2630.00 1501.8019 1039.9062 34.6379 1.8808
2640.00 1501.9745 1039.9517 34.6380 1.8800
2650.00 1502.1472 1039.9972 34.6380 1.8792
2660.00 1502.3199 1040.0427 34.6381 1.8785
2670.00 1502.4925 1040.0882 34.6381 1.8777
2680.00 1502.6652 1040.1337 34.6381 1.8769
2690.00 1502.8379 1040.1792 34.6382 1.8762
2700.00 1503.0106 1040.2248 34.6382 1.8754
2710.00 1503.1832 1040.2703 34.6383 1.8746
2720.00 1503.3559 1040.3158 34.6383 1.8738
2730.00 1503.5287 1040.3612 34.6383 1.8731
2740.00 1503.7025 1040.4065 34.6384 1.8723
2750.00 1503.8762 1040.4518 34.6384 1.8716
2760.00 1504.0500 1040.4971 34.6385 1.8708
2770.00 1504.2238 1040.5424 34.6385 1.8701
2780.00 1504.3976 1040.5877 34.6385 1.8693
2790.00 1504.5714 1040.6330 34.6386 1.8686
2800.00 1504.7452 1040.6783 34.6386 1.8679
2810.00 1504.9190 1040.7236 34.6387 1.8671
2820.00 1505.0928 1040.7689 34.6387 1.8664
2830.00 1505.2666 1040.8142 34.6388 1.8656
2840.00 1505.4404 1040.8595 34.6388 1.8649
2850.00 1505.6142 1040.9048 34.6388 1.8641
2860.00 1505.7880 1040.9501 34.6389 1.8634
2870.00 1505.9618 1040.9954 34.6389 1.8626
2880.00 1506.1356 1041.0407 34.6390 1.8619
2890.00 1506.3094 1041.0860 34.6390 1.8611
2900.00 1506.4832 1041.1313 34.6390 1.8604
2910.00 1506.6570 1041.1766 34.6391 1.8596
2920.00 1506.8308 1041.2219 34.6391 1.8589
2930.00 1507.0046 1041.2672 34.6392 1.8581
2940.00 1507.1784 1041.3125 34.6392 1.8574
2950.00 1507.3522 1041.3578 34.6392 1.8566
2960.00 1507.5260 1041.4031 34.6393 1.8559
2970.00 1507.6997 1041.4484 34.6393 1.8552
2980.00 1507.8735 1041.4937 34.6394 1.8544
2990.00 1508.0473 1041.5390 34.6394 1.8537
3000.00 1508.2300 1041.5836 34.6393 1.8548
3010.00 1508.4081 1041.6286 34.6393 1.8548
3020.00 1508.5861 1041.6736 34.6394 1.8547
3030.00 1508.7642 1041.7186 34.6394 1.8547
3040.00 1508.9423 1041.7635 34.6394 1.8547
3050.00 1509.1204 1041.8085 34.6394 1.8547
3060.00 1509.2985 1041.8535 34.6394 1.8546
3070.00 1509.4766 1041.8985 34.6394 1.8546
3080.00 1509.6547 1041.9434 34.6394 1.8546
3090.00 1509.8328 1041.9884 34.6394 1.8545
3100.00 1510.0108 1042.0334 34.6394 1.8545
3110.00 1510.1889 1042.0783 34.6394 1.8545
3120.00 1510.3670 1042.1233 34.6394 1.8545
3130.00 1510.5451 1042.1683 34.6394 1.8544
3140.00 1510.7232 1042.2133 34.6394 1.8544
3150.00 1510.9013 1042.2582 34.6394 1.8544
3160.00 1511.0794 1042.3032 34.6394 1.8543
3170.00 1511.2575 1042.3482 34.6394 1.8543
3180.00 1511.4356 1042.3931 34.6394 1.8543
3190.00 1511.6136 1042.4381 34.6394 1.8543
