# Averages over distance (i) for each depth (k):
# Depth(m) Speed(m/s) Density(kg/m^3) Salt PSU Theta(degC)
0.00 1527.8859 1024.5734 35.5206 22.1539
10.00 1527.9708 1024.6278 35.5221 22.1202
20.00 1527.8384 1024.7084 35.5268 22.0017
30.00 1527.3567 1024.8284 35.5340 21.7490
40.00 1526.7140 1024.9633 35.5400 21.4376
50.00 1526.0504 1025.0977 35.5445 21.1218
60.00 1525.4001 1025.2282 35.5480 20.8142
70.00 1524.7559 1025.3556 35.5502 20.5121
80.00 1524.1188 1025.4796 35.5509 20.2158
90.00 1523.5089 1025.5984 35.5502 19.9325
100.00 1522.9597 1025.7089 35.5480 19.6738
110.00 1522.4966 1025.8096 35.5447 19.4482
120.00 1522.1104 1025.9018 35.5409 19.2516
130.00 1521.7667 1025.9893 35.5366 19.0713
140.00 1521.4358 1026.0746 35.5317 18.8965
150.00 1521.0838 1026.1601 35.5255 18.7161
160.00 1520.7132 1026.2457 35.5180 18.5307
170.00 1520.3275 1026.3313 35.5095 18.3411
180.00 1519.9171 1026.4162 35.4986 18.1456
190.00 1519.4989 1026.5008 35.4870 17.9483
200.00 1519.0496 1026.5852 35.4729 17.7429
210.00 1518.5722 1026.6693 35.4567 17.5302
220.00 1518.0948 1026.7534 35.4405 17.3176
230.00 1517.5167 1026.8393 35.4190 17.0769
240.00 1516.9012 1026.9259 35.3956 16.8257
250.00 1516.2857 1027.0125 35.3722 16.5745
260.00 1515.6113 1027.1004 35.3463 16.3073
270.00 1514.7627 1027.1920 35.3132 15.9925
280.00 1513.9141 1027.2837 35.2801 15.6777
290.00 1513.0656 1027.3753 35.2470 15.3629
300.00 1512.2155 1027.4670 35.2139 15.0478
310.00 1511.1520 1027.5599 35.1739 14.6828
320.00 1510.0885 1027.6529 35.1340 14.3178
330.00 1509.0250 1027.7458 35.0940 13.9528
340.00 1507.9615 1027.8388 35.0540 13.5879
350.00 1506.8980 1027.9317 35.0141 13.2229
360.00 1505.8301 1028.0172 34.9760 12.8734
370.00 1504.7619 1028.1021 34.9381 12.5250
380.00 1503.6937 1028.1870 34.9001 12.1766
390.00 1502.6255 1028.2719 34.8622 11.8282
400.00 1501.5573 1028.3568 34.8242 11.4798
410.00 1500.4908 1028.4416 34.7864 11.1320
420.00 1499.6514 1028.5138 34.7581 10.8613
430.00 1498.8121 1028.5860 34.7297 10.5906
440.00 1497.9727 1028.6582 34.7014 10.3200
450.00 1497.1334 1028.7304 34.6731 10.0493
460.00 1496.2940 1028.8026 34.6448 9.7786
470.00 1495.4547 1028.8748 34.6165 9.5080
480.00 1494.6916 1028.9444 34.5909 9.2596
490.00 1494.1540 1029.0066 34.5733 9.0769
500.00 1493.6163 1029.0687 34.5557 8.8942
510.00 1493.0787 1029.1308 34.5382 8.7115
520.00 1492.5410 1029.1929 34.5206 8.5288
530.00 1492.0033 1029.2551 34.5030 8.3461
540.00 1491.4657 1029.3172 34.4855 8.1634
550.00 1490.9280 1029.3793 34.4679 7.9807
560.00 1490.5630 1029.4374 34.4561 7.8448
570.00 1490.2621 1029.4940 34.4465 7.7262
580.00 1489.9612 1029.5505 34.4368 7.6077
590.00 1489.6603 1029.6071 34.4272 7.4892
600.00 1489.3594 1029.6637 34.4175 7.3707
610.00 1489.0585 1029.7202 34.4079 7.2521
620.00 1488.7576 1029.7768 34.3982 7.1336
630.00 1488.4567 1029.8334 34.3886 7.0151
640.00 1488.2260 1029.8888 34.3815 6.9149
650.00 1488.0585 1029.9432 34.3766 6.8312
660.00 1487.8909 1029.9977 34.3718 6.7474
670.00 1487.7234 1030.0521 34.3669 6.6637
680.00 1487.5558 1030.1065 34.3621 6.5800
690.00 1487.3883 1030.1610 34.3572 6.4963
700.00 1487.2207 1030.2154 34.3523 6.4125
710.00 1487.0532 1030.2698 34.3475 6.3288
720.00 1486.8856 1030.3242 34.3426 6.2451
730.00 1486.7608 1030.3786 34.3400 6.1724
740.00 1486.6496 1030.4329 34.3382 6.1031
750.00 1486.5383 1030.4873 34.3363 6.0339
760.00 1486.4270 1030.5416 34.3344 5.9647
770.00 1486.3158 1030.5959 34.3325 5.8954
780.00 1486.2045 1030.6502 34.3306 5.8262
790.00 1486.0932 1030.7046 34.3287 5.7569
800.00 1485.9820 1030.7589 34.3268 5.6877
810.00 1485.8707 1030.8132 34.3249 5.6185
820.00 1485.7735 1030.8679 34.3242 5.5529
830.00 1485.6877 1030.9228 34.3246 5.4902
840.00 1485.6020 1030.9777 34.3249 5.4276
850.00 1485.5162 1031.0327 34.3252 5.3649
860.00 1485.4304 1031.0876 34.3255 5.3022
870.00 1485.3446 1031.1425 34.3258 5.2396
880.00 1485.2588 1031.1974 34.3261 5.1769
890.00 1485.1730 1031.2523 34.3264 5.1143
900.00 1485.0872 1031.3073 34.3268 5.0516
910.00 1485.0020 1031.3622 34.3271 4.9891
920.00 1484.9400 1031.4175 34.3291 4.9325
930.00 1484.8779 1031.4728 34.3312 4.8759
940.00 1484.8159 1031.5280 34.3332 4.8193
950.00 1484.7538 1031.5833 34.3352 4.7627
960.00 1484.6918 1031.6386 34.3372 4.7061
970.00 1484.6298 1031.6939 34.3392 4.6495
980.00 1484.5677 1031.7491 34.3413 4.5928
990.00 1484.5057 1031.8044 34.3433 4.5362
1000.00 1484.4436 1031.8597 34.3453 4.4796
1010.00 1484.3893 1031.9150 34.3477 4.4249
1020.00 1484.3543 1031.9702 34.3509 4.3751
1030.00 1484.3193 1032.0254 34.3542 4.3252
1040.00 1484.2843 1032.0806 34.3574 4.2753
1050.00 1484.2493 1032.1359 34.3606 4.2255
1060.00 1484.2142 1032.1911 34.3639 4.1756
1070.00 1484.1792 1032.2463 34.3671 4.1258
1080.00 1484.1442 1032.3016 34.3704 4.0759
1090.00 1484.1092 1032.3568 34.3736 4.0260
1100.00 1484.0742 1032.4120 34.3769 3.9762
1110.00 1484.0501 1032.4671 34.3804 3.9290
1120.00 1484.0418 1032.5221 34.3845 3.8857
1130.00 1484.0336 1032.5770 34.3886 3.8423
1140.00 1484.0253 1032.6320 34.3927 3.7990
1150.00 1484.0170 1032.6869 34.3967 3.7557
1160.00 1484.0087 1032.7419 34.4008 3.7124
1170.00 1484.0004 1032.7968 34.4049 3.6691
1180.00 1483.9921 1032.8517 34.4089 3.6257
1190.00 1483.9838 1032.9067 34.4130 3.5824
1200.00 1483.9755 1032.9616 34.4171 3.5391
1210.00 1483.9793 1033.0163 34.4213 3.4987
1220.00 1483.9983 1033.0707 34.4258 3.4620
1230.00 1484.0172 1033.1250 34.4303 3.4253
1240.00 1484.0361 1033.1794 34.4347 3.3885
1250.00 1484.0550 1033.2337 34.4392 3.3518
1260.00 1484.0740 1033.2881 34.4436 3.3151
1270.00 1484.0929 1033.3424 34.4481 3.2783
1280.00 1484.1118 1033.3968 34.4526 3.2416
1290.00 1484.1308 1033.4512 34.4570 3.2049
1300.00 1484.1497 1033.5055 34.4615 3.1681
1310.00 1484.1797 1033.5595 34.4659 3.1341
1320.00 1484.2279 1033.6128 34.4702 3.1044
1330.00 1484.2761 1033.6661 34.4744 3.0747
1340.00 1484.3242 1033.7194 34.4787 3.0450
1350.00 1484.3724 1033.7726 34.4830 3.0153
1360.00 1484.4206 1033.8259 34.4873 2.9856
1370.00 1484.4688 1033.8792 34.4916 2.9559
1380.00 1484.5169 1033.9325 34.4959 2.9262
1390.00 1484.5651 1033.9858 34.5001 2.8965
1400.00 1484.6133 1034.0391 34.5044 2.8669
1410.00 1484.6640 1034.0923 34.5087 2.8378
1420.00 1484.7420 1034.1441 34.5123 2.8152
1430.00 1484.8200 1034.1959 34.5159 2.7927
1440.00 1484.8980 1034.2478 34.5195 2.7702
1450.00 1484.9760 1034.2996 34.5231 2.7477
1460.00 1485.0540 1034.3514 34.5267 2.7251
1470.00 1485.1320 1034.4033 34.5303 2.7026
1480.00 1485.2100 1034.4551 34.5339 2.6801
1490.00 1485.2880 1034.5069 34.5375 2.6576
1500.00 1485.3659 1034.5587 34.5411 2.6350
1510.00 1485.4439 1034.6106 34.5447 2.6125
1520.00 1485.5295 1034.6620 34.5480 2.5918
1530.00 1485.6335 1034.7122 34.5507 2.5755
1540.00 1485.7374 1034.7625 34.5534 2.5592
1550.00 1485.8414 1034.8128 34.5561 2.5429
1560.00 1485.9454 1034.8631 34.5589 2.5266
1570.00 1486.0494 1034.9134 34.5616 2.5103
1580.00 1486.1534 1034.9637 34.5643 2.4940
1590.00 1486.2574 1035.0139 34.5670 2.4777
1600.00 1486.3613 1035.0642 34.5697 2.4614
1610.00 1486.4653 1035.1145 34.5724 2.4452
1620.00 1486.5693 1035.1648 34.5751 2.4289
1630.00 1486.6733 1035.2151 34.5778 2.4126
1640.00 1486.7883 1035.2646 34.5800 2.3989
1650.00 1486.9112 1035.3137 34.5819 2.3871
1660.00 1487.0341 1035.3627 34.5838 2.3753
1670.00 1487.1570 1035.4118 34.5857 2.3635
1680.00 1487.2799 1035.4608 34.5876 2.3517
1690.00 1487.4028 1035.5098 34.5895 2.3399
1700.00 1487.5257 1035.5589 34.5914 2.3281
1710.00 1487.6486 1035.6079 34.5933 2.3163
1720.00 1487.7715 1035.6569 34.5952 2.3045
1730.00 1487.8945 1035.7060 34.5971 2.2928
1740.00 1488.0174 1035.7550 34.5990 2.2810
1750.00 1488.1403 1035.8040 34.6009 2.2692
1760.00 1488.2632 1035.8531 34.6027 2.2574
1770.00 1488.3918 1035.9017 34.6043 2.2469
1780.00 1488.5266 1035.9498 34.6056 2.2379
1790.00 1488.6613 1035.9980 34.6069 2.2289
1800.00 1488.7961 1036.0461 34.6082 2.2199
1810.00 1488.9308 1036.0942 34.6095 2.2108
1820.00 1489.0655 1036.1424 34.6108 2.2018
1830.00 1489.2003 1036.1905 34.6121 2.1928
1840.00 1489.3350 1036.2387 34.6134 2.1838
1850.00 1489.4698 1036.2868 34.6147 2.1747
1860.00 1489.6045 1036.3350 34.6160 2.1657
1870.00 1489.7392 1036.3831 34.6173 2.1567
1880.00 1489.8740 1036.4313 34.6186 2.1477
1890.00 1490.0087 1036.4794 34.6199 2.1386
1900.00 1490.1435 1036.5275 34.6212 2.1296
1910.00 1490.2782 1036.5757 34.6224 2.1206
1920.00 1490.4170 1036.6235 34.6235 2.1125
1930.00 1490.5588 1036.6710 34.6244 2.1050
1940.00 1490.7006 1036.7186 34.6253 2.0976
1950.00 1490.8423 1036.7661 34.6262 2.0902
1960.00 1490.9841 1036.8137 34.6271 2.0827
1970.00 1491.1259 1036.8612 34.6280 2.0753
1980.00 1491.2676 1036.9088 34.6289 2.0678
1990.00 1491.4094 1036.9563 34.6298 2.0604
2000.00 1491.5512 1037.0039 34.6307 2.0529
2010.00 1491.6929 1037.0514 34.6316 2.0455
2020.00 1491.8347 1037.0990 34.6325 2.0381
2030.00 1491.9765 1037.1465 34.6333 2.0306
2040.00 1492.1182 1037.1941 34.6342 2.0232
2050.00 1492.2600 1037.2416 34.6351 2.0157
2060.00 1492.4017 1037.2892 34.6360 2.0083
2070.00 1492.5435 1037.3367 34.6369 2.0008
2080.00 1492.6853 1037.3843 34.6378 1.9934
2090.00 1492.8298 1037.4316 34.6386 1.9865
2100.00 1492.9761 1037.4787 34.6392 1.9800
2110.00 1493.1224 1037.5258 34.6398 1.9735
2120.00 1493.2687 1037.5730 34.6405 1.9670
2130.00 1493.4150 1037.6201 34.6411 1.9605
2140.00 1493.5613 1037.6672 34.6418 1.9540
2150.00 1493.7076 1037.7144 34.6424 1.9475
2160.00 1493.8539 1037.7615 34.6431 1.9410
2170.00 1494.0002 1037.8086 34.6437 1.9345
2180.00 1494.1465 1037.8557 34.6443 1.9280
2190.00 1494.2928 1037.9029 34.6450 1.9215
2200.00 1494.4391 1037.9500 34.6456 1.9150
2210.00 1494.5854 1037.9971 34.6463 1.9085
2220.00 1494.7317 1038.0443 34.6469 1.9020
2230.00 1494.8780 1038.0914 34.6476 1.8955
2240.00 1495.0243 1038.1385 34.6482 1.8890
2250.00 1495.1706 1038.1857 34.6489 1.8825
2260.00 1495.3170 1038.2328 34.6495 1.8760
2270.00 1495.4633 1038.2799 34.6501 1.8695
2280.00 1495.6109 1038.3269 34.6507 1.8633
2290.00 1495.7607 1038.3737 34.6512 1.8574
2300.00 1495.9105 1038.4206 34.6517 1.8516
2310.00 1496.0603 1038.4674 34.6522 1.8457
2320.00 1496.2102 1038.5142 34.6527 1.8399
2330.00 1496.3600 1038.5610 34.6532 1.8340
2340.00 1496.5098 1038.6078 34.6537 1.8282
2350.00 1496.6596 1038.6546 34.6542 1.8223
2360.00 1496.8094 1038.7014 34.6547 1.8165
2370.00 1496.9592 1038.7482 34.6552 1.8106
2380.00 1497.1090 1038.7950 34.6556 1.8048
2390.00 1497.2589 1038.8419 34.6561 1.7989
2400.00 1497.4087 1038.8887 34.6566 1.7931
2410.00 1497.5585 1038.9355 34.6571 1.7873
2420.00 1497.7083 1038.9823 34.6576 1.7814
2430.00 1497.8581 1039.0291 34.6581 1.7756
2440.00 1498.0079 1039.0759 34.6586 1.7697
2450.00 1498.1578 1039.1227 34.6591 1.7639
2460.00 1498.3076 1039.1695 34.6596 1.7580
2470.00 1498.4574 1039.2163 34.6601 1.7522
2480.00 1498.6072 1039.2631 34.6606 1.7463
2490.00 1498.7570 1039.3100 34.6611 1.7405
2500.00 1498.9097 1039.3565 34.6615 1.7351
2510.00 1499.0627 1039.4031 34.6619 1.7298
2520.00 1499.2158 1039.4496 34.6623 1.7245
2530.00 1499.3689 1039.4961 34.6627 1.7192
2540.00 1499.5219 1039.5427 34.6631 1.7139
2550.00 1499.6750 1039.5892 34.6635 1.7086
2560.00 1499.8281 1039.6357 34.6639 1.7033
2570.00 1499.9811 1039.6823 34.6643 1.6980
2580.00 1500.1342 1039.7288 34.6647 1.6927
2590.00 1500.2873 1039.7753 34.6651 1.6874
2600.00 1500.4403 1039.8219 34.6655 1.6821
2610.00 1500.5934 1039.8684 34.6659 1.6769
2620.00 1500.7465 1039.9149 34.6663 1.6716
2630.00 1500.8995 1039.9615 34.6667 1.6663
2640.00 1501.0526 1040.0080 34.6671 1.6610
2650.00 1501.2056 1040.0545 34.6675 1.6557
2660.00 1501.3587 1040.1011 34.6680 1.6504
2670.00 1501.5118 1040.1476 34.6684 1.6451
2680.00 1501.6648 1040.1942 34.6688 1.6398
2690.00 1501.8179 1040.2407 34.6692 1.6345
2700.00 1501.9710 1040.2872 34.6696 1.6292
2710.00 1502.1240 1040.3338 34.6700 1.6239
2720.00 1502.2771 1040.3803 34.6704 1.6186
2730.00 1502.4304 1040.4268 34.6708 1.6133
2740.00 1502.5867 1040.4731 34.6711 1.6085
2750.00 1502.7430 1040.5194 34.6715 1.6038
2760.00 1502.8993 1040.5656 34.6718 1.5990
2770.00 1503.0557 1040.6119 34.6722 1.5942
2780.00 1503.2120 1040.6582 34.6725 1.5894
2790.00 1503.3683 1040.7044 34.6729 1.5846
2800.00 1503.5246 1040.7507 34.6732 1.5798
2810.00 1503.6809 1040.7970 34.6736 1.5751
2820.00 1503.8372 1040.8433 34.6739 1.5703
2830.00 1503.9935 1040.8895 34.6743 1.5655
2840.00 1504.1499 1040.9358 34.6746 1.5607
2850.00 1504.3062 1040.9821 34.6750 1.5559
2860.00 1504.4625 1041.0283 34.6753 1.5512
2870.00 1504.6188 1041.0746 34.6757 1.5464
2880.00 1504.7751 1041.1209 34.6760 1.5416
2890.00 1504.9314 1041.1672 34.6764 1.5368
2900.00 1505.0877 1041.2134 34.6767 1.5320
2910.00 1505.2441 1041.2597 34.6771 1.5272
2920.00 1505.4004 1041.3060 34.6774 1.5225
2930.00 1505.5567 1041.3522 34.6778 1.5177
2940.00 1505.7130 1041.3985 34.6781 1.5129
2950.00 1505.8693 1041.4448 34.6785 1.5081
2960.00 1506.0256 1041.4911 34.6788 1.5033
2970.00 1506.1819 1041.5373 34.6792 1.4985
2980.00 1506.3383 1041.5836 34.6795 1.4938
2990.00 1506.4946 1041.6299 34.6799 1.4890
3000.00 1506.6538 1041.6759 34.6802 1.4846
3010.00 1506.8131 1041.7219 34.6805 1.4803
3020.00 1506.9725 1041.7679 34.6808 1.4759
3030.00 1507.1318 1041.8139 34.6811 1.4716
3040.00 1507.2911 1041.8599 34.6814 1.4672
3050.00 1507.4504 1041.9059 34.6817 1.4629
3060.00 1507.6098 1041.9519 34.6821 1.4585
3070.00 1507.7691 1041.9979 34.6824 1.4542
3080.00 1507.9284 1042.0440 34.6827 1.4498
3090.00 1508.0878 1042.0900 34.6830 1.4455
3100.00 1508.2471 1042.1360 34.6833 1.4411
3110.00 1508.4064 1042.1820 34.6836 1.4368
3120.00 1508.5657 1042.2280 34.6839 1.4324
3130.00 1508.7251 1042.2740 34.6842 1.4281
3140.00 1508.8844 1042.3200 34.6845 1.4237
3150.00 1509.0437 1042.3660 34.6848 1.4194
3160.00 1509.2030 1042.4120 34.6851 1.4150
3170.00 1509.3624 1042.4580 34.6855 1.4107
3180.00 1509.5217 1042.5041 34.6858 1.4063
3190.00 1509.6810 1042.5501 34.6861 1.4020
3200.00 1509.8403 1042.5961 34.6864 1.3976
3210.00 1509.9997 1042.6421 34.6867 1.3933
3220.00 1510.1590 1042.6881 34.6870 1.3889
3230.00 1510.3183 1042.7341 34.6873 1.3846
3240.00 1510.4776 1042.7801 34.6876 1.3802
3250.00 1510.6370 1042.8261 34.6879 1.3759
3260.00 1510.7963 1042.8721 34.6882 1.3715
3270.00 1510.9556 1042.9181 34.6885 1.3672
3280.00 1511.1162 1042.9640 34.6888 1.3630
3290.00 1511.2778 1043.0098 34.6891 1.3589
3300.00 1511.4393 1043.0555 34.6894 1.3547
3310.00 1511.6009 1043.1013 34.6897 1.3506
3320.00 1511.7624 1043.1471 34.6899 1.3465
3330.00 1511.9240 1043.1928 34.6902 1.3424
3340.00 1512.0855 1043.2386 34.6905 1.3383
3350.00 1512.2471 1043.2844 34.6908 1.3342
3360.00 1512.4086 1043.3301 34.6910 1.3301
3370.00 1512.5702 1043.3759 34.6913 1.3260
3380.00 1512.7317 1043.4217 34.6916 1.3218
3390.00 1512.8933 1043.4674 34.6919 1.3177
3400.00 1513.0549 1043.5132 34.6921 1.3136
3410.00 1513.2164 1043.5590 34.6924 1.3095
3420.00 1513.3780 1043.6047 34.6927 1.3054
3430.00 1513.5395 1043.6505 34.6930 1.3013
3440.00 1513.7011 1043.6963 34.6932 1.2972
3450.00 1513.8626 1043.7420 34.6935 1.2930
3460.00 1514.0242 1043.7878 34.6938 1.2889
3470.00 1514.1857 1043.8336 34.6941 1.2848
3480.00 1514.3473 1043.8793 34.6943 1.2807
3490.00 1514.5088 1043.9251 34.6946 1.2766
3500.00 1514.6704 1043.9709 34.6949 1.2725
3510.00 1514.8319 1044.0166 34.6952 1.2684
3520.00 1514.9935 1044.0624 34.6954 1.2643
3530.00 1515.1550 1044.1082 34.6957 1.2601
3540.00 1515.3166 1044.1539 34.6960 1.2560
3550.00 1515.4781 1044.1997 34.6963 1.2519
3560.00 1515.6397 1044.2455 34.6965 1.2478
3570.00 1515.8013 1044.2912 34.6968 1.2437
3580.00 1515.9628 1044.3370 34.6971 1.2396
3590.00 1516.1250 1044.3826 34.6973 1.2354
3600.00 1516.2872 1044.4282 34.6976 1.2311
3610.00 1516.4495 1044.4737 34.6978 1.2269
3620.00 1516.6117 1044.5193 34.6981 1.2226
3630.00 1516.7740 1044.5649 34.6983 1.2184
3640.00 1516.9363 1044.6105 34.6986 1.2142
3650.00 1517.0985 1044.6560 34.6988 1.2099
3660.00 1517.2608 1044.7016 34.6991 1.2057
3670.00 1517.4230 1044.7472 34.6993 1.2014
3680.00 1517.5853 1044.7928 34.6996 1.1972
3690.00 1517.7475 1044.8383 34.6998 1.1930
3700.00 1517.9098 1044.8839 34.7001 1.1887
3710.00 1518.0720 1044.9295 34.7003 1.1845
3720.00 1518.2343 1044.9751 34.7005 1.1803
3730.00 1518.3965 1045.0206 34.7008 1.1760
3740.00 1518.5588 1045.0662 34.7010 1.1718
3750.00 1518.7211 1045.1118 34.7013 1.1675
3760.00 1518.8833 1045.1574 34.7015 1.1633
3770.00 1519.0456 1045.2029 34.7018 1.1591
3780.00 1519.2078 1045.2485 34.7020 1.1548
3790.00 1519.3701 1045.2941 34.7023 1.1506
3800.00 1519.5323 1045.3397 34.7025 1.1464
3810.00 1519.6946 1045.3852 34.7028 1.1421
3820.00 1519.8568 1045.4308 34.7030 1.1379
3830.00 1520.0191 1045.4764 34.7033 1.1336
3840.00 1520.1814 1045.5220 34.7035 1.1294
3850.00 1520.3436 1045.5675 34.7038 1.1252
3860.00 1520.5059 1045.6131 34.7040 1.1209
3870.00 1520.6681 1045.6587 34.7043 1.1167
3880.00 1520.8304 1045.7043 34.7045 1.1125
3890.00 1520.9926 1045.7498 34.7047 1.1082
3900.00 1521.1549 1045.7954 34.7050 1.1040
3910.00 1521.3171 1045.8410 34.7052 1.0997
3920.00 1521.4785 1045.8864 34.7055 1.0950
3930.00 1521.6397 1045.9319 34.7057 1.0903
3940.00 1521.8009 1045.9773 34.7059 1.0855
3950.00 1521.9621 1046.0227 34.7061 1.0807
3960.00 1522.1233 1046.0682 34.7063 1.0760
3970.00 1522.2845 1046.1136 34.7065 1.0712
3980.00 1522.4457 1046.1591 34.7067 1.0665
3990.00 1522.6069 1046.2045 34.7069 1.0617
4000.00 1522.7681 1046.2499 34.7071 1.0569
4010.00 1522.9293 1046.2954 34.7073 1.0522
4020.00 1523.0905 1046.3408 34.7075 1.0474
4030.00 1523.2517 1046.3862 34.7077 1.0426
4040.00 1523.4129 1046.4317 34.7079 1.0379
4050.00 1523.5741 1046.4771 34.7081 1.0331
4060.00 1523.7353 1046.5225 34.7084 1.0283
4070.00 1523.8966 1046.5680 34.7086 1.0236
4080.00 1524.0578 1046.6134 34.7088 1.0188
4090.00 1524.2190 1046.6588 34.7090 1.0141
4100.00 1524.3802 1046.7043 34.7092 1.0093
4110.00 1524.5414 1046.7497 34.7094 1.0045
4120.00 1524.7026 1046.7952 34.7096 0.9998
4130.00 1524.8638 1046.8406 34.7098 0.9950
4140.00 1525.0250 1046.8860 34.7100 0.9902
4150.00 1525.1862 1046.9315 34.7102 0.9855
4160.00 1525.3474 1046.9769 34.7104 0.9807
4170.00 1525.5086 1047.0223 34.7106 0.9759
4180.00 1525.6698 1047.0678 34.7108 0.9712
4190.00 1525.8310 1047.1132 34.7111 0.9664
4200.00 1525.9922 1047.1586 34.7113 0.9617
4210.00 1526.1534 1047.2041 34.7115 0.9569
4220.00 1526.3146 1047.2495 34.7117 0.9521
4230.00 1526.4758 1047.2949 34.7119 0.9474
4240.00 1526.6370 1047.3404 34.7121 0.9426
4250.00 1526.7982 1047.3858 34.7123 0.9378
4260.00 1526.9595 1047.4313 34.7125 0.9331
4270.00 1527.1208 1047.4766 34.7127 0.9282
4280.00 1527.2823 1047.5218 34.7128 0.9232
4290.00 1527.4438 1047.5670 34.7129 0.9182
4300.00 1527.6053 1047.6122 34.7130 0.9132
4310.00 1527.7668 1047.6574 34.7132 0.9082
4320.00 1527.9283 1047.7026 34.7133 0.9032
4330.00 1528.0898 1047.7478 34.7134 0.8982
4340.00 1528.2512 1047.7930 34.7135 0.8932
4350.00 1528.4127 1047.8382 34.7136 0.8882
4360.00 1528.5742 1047.8834 34.7138 0.8832
4370.00 1528.7357 1047.9286 34.7139 0.8783
4380.00 1528.8972 1047.9738 34.7140 0.8733
4390.00 1529.0587 1048.0190 34.7141 0.8683
4400.00 1529.2202 1048.0642 34.7143 0.8633
4410.00 1529.3817 1048.1094 34.7144 0.8583
4420.00 1529.5431 1048.1546 34.7145 0.8533
4430.00 1529.7046 1048.1998 34.7146 0.8483
4440.00 1529.8661 1048.2450 34.7147 0.8433
4450.00 1530.0276 1048.2902 34.7149 0.8383
4460.00 1530.1891 1048.3354 34.7150 0.8333
4470.00 1530.3506 1048.3807 34.7151 0.8283
4480.00 1530.5121 1048.4259 34.7152 0.8233
4490.00 1530.6736 1048.4711 34.7154 0.8183
4500.00 1530.8351 1048.5163 34.7155 0.8133
4510.00 1530.9965 1048.5615 34.7156 0.8084
4520.00 1531.1580 1048.6067 34.7157 0.8034
4530.00 1531.3195 1048.6519 34.7159 0.7984
4540.00 1531.4810 1048.6971 34.7160 0.7934
4550.00 1531.6425 1048.7423 34.7161 0.7884
4560.00 1531.8040 1048.7875 34.7162 0.7834
4570.00 1531.9655 1048.8327 34.7163 0.7784
4580.00 1532.1270 1048.8779 34.7165 0.7734
4590.00 1532.2885 1048.9231 34.7166 0.7684
4600.00 1532.4499 1048.9683 34.7167 0.7634
4610.00 1532.6114 1049.0135 34.7168 0.7584
4620.00 1532.7729 1049.0587 34.7170 0.7534
4630.00 1532.9344 1049.1039 34.7171 0.7484
4640.00 1533.0959 1049.1491 34.7172 0.7435
4650.00 1533.2670 1049.1937 34.7172 0.7403
4660.00 1533.4384 1049.2382 34.7172 0.7372
4670.00 1533.6098 1049.2828 34.7173 0.7341
4680.00 1533.7812 1049.3273 34.7173 0.7311
4690.00 1533.9525 1049.3718 34.7173 0.7280
4700.00 1534.1239 1049.4164 34.7173 0.7249
4710.00 1534.2953 1049.4609 34.7173 0.7218
4720.00 1534.4667 1049.5055 34.7173 0.7187
4730.00 1534.6381 1049.5500 34.7174 0.7156
4740.00 1534.8094 1049.5945 34.7174 0.7125
4750.00 1534.9808 1049.6391 34.7174 0.7094
4760.00 1535.1522 1049.6836 34.7174 0.7063
4770.00 1535.3236 1049.7281 34.7174 0.7033
4780.00 1535.4949 1049.7727 34.7174 0.7002
4790.00 1535.6663 1049.8172 34.7175 0.6971
4800.00 1535.8377 1049.8618 34.7175 0.6940
4810.00 1536.0091 1049.9063 34.7175 0.6909
4820.00 1536.1805 1049.9508 34.7175 0.6878
4830.00 1536.3518 1049.9954 34.7175 0.6847
4840.00 1536.5232 1050.0399 34.7175 0.6816
4850.00 1536.6946 1050.0845 34.7176 0.6786
4860.00 1536.8660 1050.1290 34.7176 0.6755
4870.00 1537.0373 1050.1735 34.7176 0.6724
4880.00 1537.2087 1050.2181 34.7176 0.6693
4890.00 1537.3801 1050.2626 34.7176 0.6662
4900.00 1537.5515 1050.3071 34.7176 0.6631
4910.00 1537.7229 1050.3517 34.7177 0.6600
4920.00 1537.8942 1050.3962 34.7177 0.6569
4930.00 1538.0656 1050.4408 34.7177 0.6539
4940.00 1538.2370 1050.4853 34.7177 0.6508
4950.00 1538.4084 1050.5298 34.7177 0.6477
4960.00 1538.5797 1050.5744 34.7177 0.6446
4970.00 1538.7511 1050.6189 34.7177 0.6415
4980.00 1538.9225 1050.6635 34.7178 0.6384
4990.00 1539.0939 1050.7080 34.7178 0.6353
5000.00 1539.2653 1050.7525 34.7178 0.6322
5010.00 1539.4366 1050.7971 34.7178 0.6291
5020.00 1539.6080 1050.8416 34.7178 0.6261
5030.00 1539.7794 1050.8862 34.7178 0.6230
5040.00 1539.9519 1050.9306 34.7179 0.6201
5050.00 1540.1385 1050.9743 34.7179 0.6201
5060.00 1540.3251 1051.0179 34.7179 0.6201
5070.00 1540.5117 1051.0615 34.7179 0.6201
5080.00 1540.6983 1051.1052 34.7179 0.6201
5090.00 1540.8849 1051.1488 34.7179 0.6201
5100.00 1541.0715 1051.1925 34.7179 0.6201
5110.00 1541.2582 1051.2361 34.7179 0.6201
5120.00 1541.4448 1051.2798 34.7179 0.6201
