# Averages over distance (i) for each depth (k):
# Depth(m) Speed(m/s) Density(kg/m^3) Salt PSU Theta(degC)
0.00 1540.7578 1022.5814 35.1278 27.7254
10.00 1540.8939 1022.6309 35.1292 27.7090
20.00 1540.9643 1022.6929 35.1337 27.6611
30.00 1540.8622 1022.7882 35.1468 27.5310
40.00 1540.5873 1022.9132 35.1653 27.3209
50.00 1540.2229 1023.0491 35.1824 27.0729
60.00 1539.8277 1023.1862 35.1972 26.8142
70.00 1539.4053 1023.3250 35.2109 26.5461
80.00 1538.9116 1023.4724 35.2245 26.2492
90.00 1538.2815 1023.6356 35.2370 25.8969
100.00 1537.4458 1023.8199 35.2454 25.4631
110.00 1536.3502 1024.0262 35.2446 24.9306
120.00 1534.9943 1024.2481 35.2307 24.3059
130.00 1533.4409 1024.4759 35.2039 23.6188
140.00 1531.7761 1024.7017 35.1678 22.9037
150.00 1530.1020 1024.9114 35.1247 22.2078
160.00 1528.4815 1025.1077 35.0802 21.5447
170.00 1526.9045 1025.2932 35.0347 20.9081
180.00 1525.4264 1025.4604 34.9898 20.3236
190.00 1523.9796 1025.6219 34.9450 19.7557
200.00 1522.6012 1025.7725 34.9018 19.2223
210.00 1521.2843 1025.9131 34.8599 18.7199
220.00 1519.9674 1026.0538 34.8181 18.2175
230.00 1518.7228 1026.1827 34.7789 17.7532
240.00 1517.5051 1026.3072 34.7407 17.3030
250.00 1516.2873 1026.4318 34.7025 16.8529
260.00 1515.0822 1026.5534 34.6653 16.4116
270.00 1513.9144 1026.6665 34.6309 15.9961
280.00 1512.7465 1026.7797 34.5965 15.5807
290.00 1511.5787 1026.8928 34.5621 15.1653
300.00 1510.4111 1027.0059 34.5278 14.7501
310.00 1509.2736 1027.1103 34.4985 14.3625
320.00 1508.1362 1027.2148 34.4692 13.9749
330.00 1506.9988 1027.3193 34.4399 13.5872
340.00 1505.8614 1027.4238 34.4106 13.1996
350.00 1504.7240 1027.5283 34.3813 12.8120
360.00 1503.6542 1027.6252 34.3594 12.4600
370.00 1502.5894 1027.7215 34.3381 12.1107
380.00 1501.5245 1027.8179 34.3167 11.7613
390.00 1500.4597 1027.9142 34.2954 11.4119
400.00 1499.3948 1028.0106 34.2741 11.0626
410.00 1498.3311 1028.1069 34.2528 10.7136
420.00 1497.4232 1028.1950 34.2419 10.4216
430.00 1496.5154 1028.2831 34.2310 10.1296
440.00 1495.6076 1028.3712 34.2200 9.8376
450.00 1494.6998 1028.4592 34.2091 9.5457
460.00 1493.7919 1028.5473 34.1982 9.2537
470.00 1492.8841 1028.6354 34.1873 8.9617
480.00 1492.0383 1028.7214 34.1790 8.6884
490.00 1491.3759 1028.8013 34.1785 8.4705
500.00 1490.7134 1028.8811 34.1779 8.2525
510.00 1490.0509 1028.9609 34.1774 8.0346
520.00 1489.3885 1029.0408 34.1769 7.8166
530.00 1488.7260 1029.1206 34.1764 7.5987
540.00 1488.0635 1029.2005 34.1759 7.3807
550.00 1487.4011 1029.2803 34.1753 7.1628
560.00 1486.9427 1029.3544 34.1802 7.0003
570.00 1486.5603 1029.4264 34.1870 6.8585
580.00 1486.1779 1029.4984 34.1938 6.7166
590.00 1485.7954 1029.5704 34.2007 6.5748
600.00 1485.4130 1029.6424 34.2075 6.4329
610.00 1485.0305 1029.7144 34.2144 6.2911
620.00 1484.6481 1029.7864 34.2212 6.1492
630.00 1484.2657 1029.8584 34.2280 6.0074
640.00 1484.0008 1029.9268 34.2363 5.8959
650.00 1483.8416 1029.9920 34.2459 5.8117
660.00 1483.6825 1030.0573 34.2555 5.7275
670.00 1483.5233 1030.1225 34.2651 5.6433
680.00 1483.3641 1030.1878 34.2747 5.5591
690.00 1483.2049 1030.2530 34.2843 5.4749
700.00 1483.0458 1030.3182 34.2939 5.3907
710.00 1482.8866 1030.3835 34.3035 5.3065
720.00 1482.7274 1030.4487 34.3130 5.2223
730.00 1482.6578 1030.5101 34.3219 5.1611
740.00 1482.6164 1030.5702 34.3304 5.1071
750.00 1482.5749 1030.6303 34.3390 5.0532
760.00 1482.5335 1030.6904 34.3475 4.9992
770.00 1482.4921 1030.7505 34.3561 4.9453
780.00 1482.4507 1030.8106 34.3646 4.8913
790.00 1482.4093 1030.8707 34.3732 4.8374
800.00 1482.3679 1030.9308 34.3818 4.7834
810.00 1482.3265 1030.9909 34.3903 4.7295
820.00 1482.3110 1031.0489 34.3975 4.6825
830.00 1482.3166 1031.1053 34.4037 4.6412
840.00 1482.3223 1031.1618 34.4098 4.5999
850.00 1482.3279 1031.2182 34.4159 4.5586
860.00 1482.3335 1031.2746 34.4220 4.5173
870.00 1482.3391 1031.3310 34.4281 4.4760
880.00 1482.3447 1031.3874 34.4343 4.4347
890.00 1482.3503 1031.4438 34.4404 4.3934
900.00 1482.3559 1031.5002 34.4465 4.3521
910.00 1482.3621 1031.5566 34.4526 4.3110
920.00 1482.3901 1031.6105 34.4566 4.2760
930.00 1482.4181 1031.6643 34.4606 4.2411
940.00 1482.4462 1031.7182 34.4646 4.2061
950.00 1482.4742 1031.7721 34.4687 4.1711
960.00 1482.5022 1031.8259 34.4727 4.1362
970.00 1482.5303 1031.8798 34.4767 4.1012
980.00 1482.5583 1031.9337 34.4807 4.0662
990.00 1482.5863 1031.9876 34.4847 4.0313
1000.00 1482.6144 1032.0414 34.4888 3.9963
1010.00 1482.6466 1032.0948 34.4924 3.9625
1020.00 1482.6892 1032.1471 34.4951 3.9316
1030.00 1482.7318 1032.1994 34.4978 3.9007
1040.00 1482.7744 1032.2516 34.5005 3.8699
1050.00 1482.8170 1032.3039 34.5032 3.8390
1060.00 1482.8597 1032.3561 34.5060 3.8081
1070.00 1482.9023 1032.4084 34.5087 3.7772
1080.00 1482.9449 1032.4607 34.5114 3.7463
1090.00 1482.9875 1032.5129 34.5141 3.7155
1100.00 1483.0302 1032.5652 34.5168 3.6846
1110.00 1483.0767 1032.6171 34.5192 3.6548
1120.00 1483.1290 1032.6683 34.5211 3.6266
1130.00 1483.1813 1032.7196 34.5231 3.5983
1140.00 1483.2335 1032.7709 34.5250 3.5701
1150.00 1483.2858 1032.8222 34.5270 3.5419
1160.00 1483.3381 1032.8735 34.5289 3.5137
1170.00 1483.3903 1032.9248 34.5309 3.4854
1180.00 1483.4426 1032.9761 34.5328 3.4572
1190.00 1483.4948 1033.0274 34.5348 3.4290
1200.00 1483.5471 1033.0787 34.5367 3.4008
1210.00 1483.6022 1033.1297 34.5385 3.3733
1220.00 1483.6609 1033.1804 34.5400 3.3468
1230.00 1483.7195 1033.2311 34.5415 3.3203
1240.00 1483.7781 1033.2818 34.5431 3.2939
1250.00 1483.8368 1033.3325 34.5446 3.2674
1260.00 1483.8954 1033.3832 34.5461 3.2409
1270.00 1483.9541 1033.4339 34.5476 3.2144
1280.00 1484.0127 1033.4846 34.5491 3.1879
1290.00 1484.0714 1033.5353 34.5507 3.1614
1300.00 1484.1300 1033.5860 34.5522 3.1350
1310.00 1484.1913 1033.6365 34.5536 3.1091
1320.00 1484.2569 1033.6868 34.5549 3.0844
1330.00 1484.3225 1033.7370 34.5562 3.0597
1340.00 1484.3881 1033.7873 34.5575 3.0350
1350.00 1484.4537 1033.8375 34.5587 3.0103
1360.00 1484.5192 1033.8878 34.5600 2.9856
1370.00 1484.5848 1033.9381 34.5613 2.9609
1380.00 1484.6504 1033.9883 34.5626 2.9362
1390.00 1484.7160 1034.0386 34.5639 2.9114
1400.00 1484.7816 1034.0888 34.5652 2.8867
1410.00 1484.8481 1034.1391 34.5664 2.8622
1420.00 1484.9244 1034.1888 34.5676 2.8401
