# Averages over distance (i) for each depth (k):
# Depth(m) Speed(m/s) Density(kg/m^3) Salt PSU Theta(degC)
0.00 1540.7636 1022.5795 35.1267 27.7286
10.00 1540.8998 1022.6290 35.1281 27.7122
20.00 1540.9706 1022.6910 35.1325 27.6646
30.00 1540.8696 1022.7861 35.1457 27.5349
40.00 1540.5960 1022.9109 35.1642 27.3254
50.00 1540.2328 1023.0467 35.1814 27.0778
60.00 1539.8386 1023.1838 35.1962 26.8195
70.00 1539.4172 1023.3225 35.2100 26.5518
80.00 1538.9247 1023.4698 35.2237 26.2554
90.00 1538.2964 1023.6329 35.2363 25.9037
100.00 1537.4626 1023.8172 35.2448 25.4705
110.00 1536.3690 1024.0234 35.2443 24.9387
120.00 1535.0147 1024.2455 35.2306 24.3144
130.00 1533.4623 1024.4735 35.2040 23.6273
140.00 1531.7977 1024.6995 35.1681 22.9121
150.00 1530.1229 1024.9094 35.1251 22.2158
160.00 1528.5015 1025.1059 35.0807 21.5521
170.00 1526.9232 1025.2916 35.0352 20.9148
180.00 1525.4436 1025.4591 34.9902 20.3298
190.00 1523.9953 1025.6208 34.9454 19.7612
200.00 1522.6152 1025.7715 34.9022 19.2271
210.00 1521.2967 1025.9123 34.8602 18.7241
220.00 1519.9781 1026.0531 34.8183 18.2210
230.00 1518.7318 1026.1821 34.7791 17.7561
240.00 1517.5122 1026.3068 34.7408 17.3054
250.00 1516.2927 1026.4314 34.7026 16.8547
260.00 1515.0857 1026.5531 34.6653 16.4127
270.00 1513.9159 1026.6664 34.6308 15.9967
280.00 1512.7461 1026.7796 34.5964 15.5807
290.00 1511.5763 1026.8928 34.5620 15.1646
300.00 1510.4067 1027.0060 34.5276 14.7488
310.00 1509.2676 1027.1106 34.4982 14.3607
320.00 1508.1284 1027.2151 34.4689 13.9726
330.00 1506.9893 1027.3197 34.4396 13.5845
340.00 1505.8502 1027.4242 34.4103 13.1964
350.00 1504.7110 1027.5288 34.3810 12.8082
360.00 1503.6403 1027.6257 34.3591 12.4560
370.00 1502.5745 1027.7221 34.3378 12.1064
380.00 1501.5087 1027.8185 34.3164 11.7569
390.00 1500.4429 1027.9149 34.2951 11.4073
400.00 1499.3772 1028.0113 34.2738 11.0577
410.00 1498.3125 1028.1076 34.2526 10.7085
420.00 1497.4049 1028.1957 34.2417 10.4166
430.00 1496.4972 1028.2838 34.2308 10.1246
440.00 1495.5896 1028.3719 34.2199 9.8327
450.00 1494.6819 1028.4600 34.2090 9.5408
460.00 1493.7743 1028.5481 34.1982 9.2489
470.00 1492.8666 1028.6362 34.1873 8.9570
480.00 1492.0213 1028.7222 34.1791 8.6838
490.00 1491.3599 1028.8020 34.1786 8.4662
500.00 1490.6986 1028.8819 34.1781 8.2485
510.00 1490.0372 1028.9617 34.1776 8.0309
520.00 1489.3759 1029.0415 34.1771 7.8132
530.00 1488.7145 1029.1213 34.1767 7.5956
540.00 1488.0531 1029.2012 34.1762 7.3779
550.00 1487.3918 1029.2810 34.1757 7.1603
560.00 1486.9347 1029.3551 34.1806 6.9981
570.00 1486.5535 1029.4270 34.1874 6.8566
580.00 1486.1723 1029.4990 34.1943 6.7150
590.00 1485.7911 1029.5710 34.2012 6.5735
600.00 1485.4100 1029.6429 34.2080 6.4320
610.00 1485.0288 1029.7149 34.2149 6.2904
620.00 1484.6476 1029.7869 34.2217 6.1489
630.00 1484.2665 1029.8588 34.2286 6.0074
640.00 1484.0025 1029.9272 34.2369 5.8961
650.00 1483.8440 1029.9924 34.2465 5.8121
660.00 1483.6855 1030.0577 34.2561 5.7280
670.00 1483.5270 1030.1229 34.2657 5.6440
680.00 1483.3685 1030.1881 34.2753 5.5599
690.00 1483.2100 1030.2533 34.2849 5.4759
700.00 1483.0515 1030.3186 34.2945 5.3919
710.00 1482.8930 1030.3838 34.3041 5.3078
720.00 1482.7345 1030.4490 34.3137 5.2238
730.00 1482.6650 1030.5103 34.3225 5.1626
740.00 1482.6236 1030.5704 34.3310 5.1087
750.00 1482.5822 1030.6305 34.3395 5.0548
760.00 1482.5409 1030.6906 34.3481 5.0008
770.00 1482.4995 1030.7507 34.3566 4.9469
780.00 1482.4581 1030.8108 34.3652 4.8930
790.00 1482.4168 1030.8709 34.3737 4.8390
800.00 1482.3754 1030.9309 34.3823 4.7851
810.00 1482.3340 1030.9910 34.3908 4.7312
820.00 1482.3185 1031.0491 34.3980 4.6842
830.00 1482.3240 1031.1055 34.4041 4.6429
840.00 1482.3294 1031.1619 34.4102 4.6015
850.00 1482.3348 1031.2183 34.4163 4.5602
860.00 1482.3402 1031.2747 34.4224 4.5188
870.00 1482.3456 1031.3311 34.4285 4.4775
880.00 1482.3511 1031.3875 34.4346 4.4361
890.00 1482.3565 1031.4439 34.4408 4.3948
900.00 1482.3619 1031.5003 34.4469 4.3535
910.00 1482.3679 1031.5567 34.4529 4.3123
920.00 1482.3958 1031.6105 34.4569 4.2773
930.00 1482.4236 1031.6644 34.4609 4.2423
940.00 1482.4514 1031.7183 34.4649 4.2073
950.00 1482.4793 1031.7721 34.4689 4.1723
960.00 1482.5071 1031.8260 34.4729 4.1372
970.00 1482.5349 1031.8799 34.4770 4.1022
980.00 1482.5628 1031.9337 34.4810 4.0672
990.00 1482.5906 1031.9876 34.4850 4.0322
1000.00 1482.6184 1032.0415 34.4890 3.9972
1010.00 1482.6504 1032.0949 34.4926 3.9634
1020.00 1482.6929 1032.1471 34.4953 3.9324
1030.00 1482.7354 1032.1994 34.4980 3.9015
1040.00 1482.7778 1032.2517 34.5007 3.8706
1050.00 1482.8203 1032.3039 34.5034 3.8397
1060.00 1482.8628 1032.3562 34.5061 3.8088
1070.00 1482.9052 1032.4084 34.5088 3.7779
1080.00 1482.9477 1032.4607 34.5115 3.7470
1090.00 1482.9902 1032.5130 34.5142 3.7160
1100.00 1483.0326 1032.5652 34.5169 3.6851
1110.00 1483.0791 1032.6171 34.5193 3.6553
1120.00 1483.1312 1032.6684 34.5212 3.6271
1130.00 1483.1834 1032.7197 34.5232 3.5988
1140.00 1483.2355 1032.7709 34.5251 3.5706
1150.00 1483.2877 1032.8222 34.5271 3.5423
1160.00 1483.3399 1032.8735 34.5290 3.5141
1170.00 1483.3920 1032.9248 34.5310 3.4858
1180.00 1483.4442 1032.9761 34.5329 3.4576
1190.00 1483.4964 1033.0274 34.5349 3.4293
1200.00 1483.5485 1033.0787 34.5368 3.4011
1210.00 1483.6036 1033.1297 34.5386 3.3736
1220.00 1483.6622 1033.1804 34.5401 3.3471
1230.00 1483.7208 1033.2311 34.5416 3.3206
1240.00 1483.7794 1033.2818 34.5431 3.2941
1250.00 1483.8380 1033.3325 34.5447 3.2676
1260.00 1483.8966 1033.3832 34.5462 3.2411
1270.00 1483.9552 1033.4339 34.5477 3.2146
1280.00 1484.0138 1033.4846 34.5492 3.1882
1290.00 1484.0724 1033.5353 34.5507 3.1617
1300.00 1484.1310 1033.5860 34.5523 3.1352
1310.00 1484.1922 1033.6365 34.5537 3.1093
1320.00 1484.2578 1033.6868 34.5550 3.0846
1330.00 1484.3234 1033.7370 34.5562 3.0599
1340.00 1484.3890 1033.7873 34.5575 3.0352
1350.00 1484.4545 1033.8376 34.5588 3.0105
1360.00 1484.5201 1033.8878 34.5601 2.9858
1370.00 1484.5857 1033.9381 34.5614 2.9611
1380.00 1484.6513 1033.9883 34.5626 2.9363
1390.00 1484.7168 1034.0386 34.5639 2.9116
1400.00 1484.7824 1034.0888 34.5652 2.8869
1410.00 1484.8489 1034.1391 34.5665 2.8624
1420.00 1484.9251 1034.1888 34.5676 2.8403
1430.00 1485.0014 1034.2386 34.5687 2.8181
1440.00 1485.0776 1034.2884 34.5699 2.7960
1450.00 1485.1539 1034.3382 34.5710 2.7738
1460.00 1485.2301 1034.3880 34.5721 2.7517
1470.00 1485.3064 1034.4378 34.5733 2.7295
1480.00 1485.3826 1034.4875 34.5744 2.7074
1490.00 1485.4589 1034.5373 34.5755 2.6852
1500.00 1485.5351 1034.5871 34.5767 2.6631
1510.00 1485.6114 1034.6369 34.5778 2.6409
1520.00 1485.6918 1034.6865 34.5789 2.6197
1530.00 1485.7826 1034.7358 34.5799 2.6010
1540.00 1485.8734 1034.7850 34.5810 2.5822
1550.00 1485.9641 1034.8342 34.5820 2.5634
1560.00 1486.0549 1034.8835 34.5830 2.5446
1570.00 1486.1457 1034.9327 34.5841 2.5259
1580.00 1486.2364 1034.9820 34.5851 2.5071
1590.00 1486.3272 1035.0312 34.5861 2.4883
1600.00 1486.4180 1035.0804 34.5871 2.4696
1610.00 1486.5087 1035.1297 34.5882 2.4508
1620.00 1486.5995 1035.1789 34.5892 2.4320
1630.00 1486.6903 1035.2282 34.5902 2.4132
1640.00 1486.7902 1035.2771 34.5912 2.3966
1650.00 1486.8968 1035.3257 34.5921 2.3814
1660.00 1487.0034 1035.3744 34.5930 2.3662
1670.00 1487.1100 1035.4231 34.5940 2.3511
1680.00 1487.2166 1035.4718 34.5949 2.3359
1690.00 1487.3232 1035.5204 34.5958 2.3207
1700.00 1487.4297 1035.5691 34.5968 2.3055
1710.00 1487.5363 1035.6178 34.5977 2.2904
1720.00 1487.6429 1035.6665 34.5986 2.2752
1730.00 1487.7495 1035.7151 34.5996 2.2600
1740.00 1487.8561 1035.7638 34.6005 2.2449
1750.00 1487.9627 1035.8125 34.6014 2.2297
1760.00 1488.0692 1035.8611 34.6023 2.2145
1770.00 1488.1828 1035.9096 34.6032 2.2009
1780.00 1488.3037 1035.9577 34.6040 2.1890
1790.00 1488.4246 1036.0058 34.6049 2.1770
1800.00 1488.5455 1036.0539 34.6057 2.1651
1810.00 1488.6665 1036.1021 34.6065 2.1531
1820.00 1488.7874 1036.1502 34.6073 2.1411
1830.00 1488.9083 1036.1983 34.6081 2.1292
1840.00 1489.0292 1036.2464 34.6090 2.1172
1850.00 1489.1501 1036.2946 34.6098 2.1053
1860.00 1489.2710 1036.3427 34.6106 2.0933
1870.00 1489.3920 1036.3908 34.6114 2.0813
1880.00 1489.5129 1036.4389 34.6122 2.0694
1890.00 1489.6338 1036.4871 34.6131 2.0574
1900.00 1489.7547 1036.5352 34.6139 2.0455
1910.00 1489.8756 1036.5833 34.6147 2.0335
1920.00 1490.0033 1036.6312 34.6154 2.0230
1930.00 1490.1357 1036.6788 34.6161 2.0136
1940.00 1490.2682 1036.7264 34.6168 2.0042
1950.00 1490.4006 1036.7741 34.6175 1.9947
1960.00 1490.5331 1036.8217 34.6182 1.9853
1970.00 1490.6655 1036.8694 34.6189 1.9759
1980.00 1490.7980 1036.9170 34.6196 1.9664
1990.00 1490.9304 1036.9646 34.6203 1.9570
2000.00 1491.0629 1037.0123 34.6210 1.9476
2010.00 1491.1954 1037.0599 34.6217 1.9381
2020.00 1491.3278 1037.1076 34.6224 1.9287
2030.00 1491.4603 1037.1552 34.6231 1.9193
2040.00 1491.5927 1037.2028 34.6238 1.9099
2050.00 1491.7252 1037.2505 34.6245 1.9004
2060.00 1491.8576 1037.2981 34.6252 1.8910
2070.00 1491.9901 1037.3458 34.6259 1.8816
2080.00 1492.1225 1037.3934 34.6266 1.8721
2090.00 1492.2603 1037.4408 34.6273 1.8638
2100.00 1492.4017 1037.4880 34.6278 1.8563
2110.00 1492.5431 1037.5352 34.6284 1.8488
2120.00 1492.6845 1037.5824 34.6290 1.8412
2130.00 1492.8260 1037.6296 34.6296 1.8337
2140.00 1492.9674 1037.6769 34.6302 1.8262
2150.00 1493.1088 1037.7241 34.6307 1.8186
2160.00 1493.2502 1037.7713 34.6313 1.8111
2170.00 1493.3916 1037.8185 34.6319 1.8036
2180.00 1493.5330 1037.8657 34.6325 1.7961
2190.00 1493.6744 1037.9129 34.6331 1.7885
2200.00 1493.8158 1037.9601 34.6336 1.7810
2210.00 1493.9573 1038.0073 34.6342 1.7735
2220.00 1494.0987 1038.0545 34.6348 1.7659
2230.00 1494.2401 1038.1018 34.6354 1.7584
2240.00 1494.3815 1038.1490 34.6360 1.7509
2250.00 1494.5229 1038.1962 34.6365 1.7433
2260.00 1494.6643 1038.2434 34.6371 1.7358
2270.00 1494.8057 1038.2906 34.6377 1.7283
2280.00 1494.9499 1038.3377 34.6382 1.7213
2290.00 1495.0985 1038.3845 34.6387 1.7152
2300.00 1495.2471 1038.4313 34.6392 1.7092
2310.00 1495.3958 1038.4781 34.6397 1.7031
2320.00 1495.5444 1038.5250 34.6401 1.6971
2330.00 1495.6930 1038.5718 34.6406 1.6910
2340.00 1495.8417 1038.6186 34.6411 1.6849
2350.00 1495.9903 1038.6654 34.6416 1.6789
2360.00 1496.1389 1038.7122 34.6420 1.6728
2370.00 1496.2876 1038.7591 34.6425 1.6668
2380.00 1496.4362 1038.8059 34.6430 1.6607
2390.00 1496.5848 1038.8527 34.6434 1.6546
2400.00 1496.7335 1038.8995 34.6439 1.6486
2410.00 1496.8821 1038.9464 34.6444 1.6425
2420.00 1497.0307 1038.9932 34.6449 1.6365
2430.00 1497.1794 1039.0400 34.6453 1.6304
2440.00 1497.3280 1039.0868 34.6458 1.6243
2450.00 1497.4767 1039.1336 34.6463 1.6183
2460.00 1497.6253 1039.1805 34.6468 1.6122
2470.00 1497.7739 1039.2273 34.6472 1.6062
2480.00 1497.9226 1039.2741 34.6477 1.6001
2490.00 1498.0712 1039.3209 34.6482 1.5940
2500.00 1498.2252 1039.3674 34.6486 1.5890
2510.00 1498.3801 1039.4139 34.6490 1.5842
2520.00 1498.5349 1039.4603 34.6494 1.5793
2530.00 1498.6897 1039.5068 34.6497 1.5745
2540.00 1498.8446 1039.5533 34.6501 1.5696
2550.00 1498.9994 1039.5997 34.6505 1.5647
2560.00 1499.1542 1039.6462 34.6509 1.5599
2570.00 1499.3090 1039.6926 34.6513 1.5550
2580.00 1499.4639 1039.7391 34.6517 1.5502
2590.00 1499.6187 1039.7856 34.6521 1.5453
2600.00 1499.7735 1039.8320 34.6525 1.5404
2610.00 1499.9284 1039.8785 34.6528 1.5356
2620.00 1500.0832 1039.9249 34.6532 1.5307
2630.00 1500.2380 1039.9714 34.6536 1.5259
2640.00 1500.3928 1040.0178 34.6540 1.5210
2650.00 1500.5477 1040.0643 34.6544 1.5161
2660.00 1500.7025 1040.1108 34.6548 1.5113
2670.00 1500.8573 1040.1572 34.6552 1.5064
2680.00 1501.0122 1040.2037 34.6556 1.5016
2690.00 1501.1670 1040.2501 34.6559 1.4967
2700.00 1501.3218 1040.2966 34.6563 1.4919
2710.00 1501.4766 1040.3431 34.6567 1.4870
2720.00 1501.6315 1040.3895 34.6571 1.4821
2730.00 1501.7867 1040.4359 34.6575 1.4773
2740.00 1501.9468 1040.4821 34.6578 1.4734
2750.00 1502.1069 1040.5282 34.6581 1.4696
2760.00 1502.2670 1040.5743 34.6584 1.4657
2770.00 1502.4271 1040.6204 34.6588 1.4618
2780.00 1502.5872 1040.6665 34.6591 1.4579
2790.00 1502.7473 1040.7126 34.6594 1.4540
2800.00 1502.9074 1040.7588 34.6597 1.4501
2810.00 1503.0675 1040.8049 34.6600 1.4462
2820.00 1503.2276 1040.8510 34.6604 1.4423
2830.00 1503.3877 1040.8971 34.6607 1.4384
2840.00 1503.5478 1040.9432 34.6610 1.4345
2850.00 1503.7079 1040.9893 34.6613 1.4306
2860.00 1503.8680 1041.0355 34.6616 1.4267
2870.00 1504.0282 1041.0816 34.6620 1.4228
2880.00 1504.1883 1041.1277 34.6623 1.4189
2890.00 1504.3484 1041.1738 34.6626 1.4150
2900.00 1504.5085 1041.2199 34.6629 1.4111
2910.00 1504.6686 1041.2660 34.6632 1.4072
2920.00 1504.8287 1041.3122 34.6636 1.4033
2930.00 1504.9888 1041.3583 34.6639 1.3994
2940.00 1505.1489 1041.4044 34.6642 1.3955
2950.00 1505.3090 1041.4505 34.6645 1.3916
2960.00 1505.4691 1041.4966 34.6648 1.3877
2970.00 1505.6292 1041.5427 34.6652 1.3838
2980.00 1505.7893 1041.5889 34.6655 1.3799
2990.00 1505.9494 1041.6350 34.6658 1.3760
3000.00 1506.1140 1041.6808 34.6661 1.3729
3010.00 1506.2787 1041.7265 34.6663 1.3698
3020.00 1506.4434 1041.7723 34.6666 1.3667
3030.00 1506.6081 1041.8181 34.6669 1.3635
3040.00 1506.7729 1041.8639 34.6671 1.3604
3050.00 1506.9376 1041.9097 34.6674 1.3573
3060.00 1507.1023 1041.9555 34.6677 1.3542
3070.00 1507.2670 1042.0012 34.6679 1.3511
3080.00 1507.4317 1042.0470 34.6682 1.3480
3090.00 1507.5964 1042.0928 34.6685 1.3449
3100.00 1507.7611 1042.1386 34.6687 1.3418
3110.00 1507.9259 1042.1844 34.6690 1.3387
3120.00 1508.0906 1042.2301 34.6693 1.3355
3130.00 1508.2553 1042.2759 34.6695 1.3324
3140.00 1508.4200 1042.3217 34.6698 1.3293
3150.00 1508.5847 1042.3675 34.6700 1.3262
3160.00 1508.7494 1042.4133 34.6703 1.3231
3170.00 1508.9141 1042.4591 34.6706 1.3200
3180.00 1509.0789 1042.5048 34.6708 1.3169
3190.00 1509.2436 1042.5506 34.6711 1.3138
3200.00 1509.4083 1042.5964 34.6714 1.3107
3210.00 1509.5730 1042.6422 34.6716 1.3075
3220.00 1509.7377 1042.6880 34.6719 1.3044
3230.00 1509.9024 1042.7338 34.6722 1.3013
3240.00 1510.0671 1042.7795 34.6724 1.2982
3250.00 1510.2319 1042.8253 34.6727 1.2951
3260.00 1510.3966 1042.8711 34.6730 1.2920
3270.00 1510.5613 1042.9169 34.6732 1.2889
3280.00 1510.7282 1042.9625 34.6735 1.2861
3290.00 1510.8968 1043.0079 34.6737 1.2836
3300.00 1511.0654 1043.0534 34.6739 1.2811
3310.00 1511.2339 1043.0989 34.6741 1.2786
3320.00 1511.4025 1043.1443 34.6744 1.2761
3330.00 1511.5711 1043.1898 34.6746 1.2735
3340.00 1511.7396 1043.2352 34.6748 1.2710
3350.00 1511.9082 1043.2807 34.6750 1.2685
3360.00 1512.0768 1043.3262 34.6752 1.2660
3370.00 1512.2454 1043.3716 34.6755 1.2635
3380.00 1512.4139 1043.4171 34.6757 1.2610
3390.00 1512.5825 1043.4625 34.6759 1.2585
3400.00 1512.7511 1043.5080 34.6761 1.2559
3410.00 1512.9196 1043.5535 34.6764 1.2534
3420.00 1513.0882 1043.5989 34.6766 1.2509
3430.00 1513.2568 1043.6444 34.6768 1.2484
3440.00 1513.4253 1043.6898 34.6770 1.2459
3450.00 1513.5939 1043.7353 34.6773 1.2434
3460.00 1513.7625 1043.7808 34.6775 1.2409
3470.00 1513.9311 1043.8262 34.6777 1.2383
3480.00 1514.0996 1043.8717 34.6779 1.2358
3490.00 1514.2682 1043.9171 34.6781 1.2333
3500.00 1514.4368 1043.9626 34.6784 1.2308
3510.00 1514.6053 1044.0081 34.6786 1.2283
3520.00 1514.7739 1044.0535 34.6788 1.2258
3530.00 1514.9425 1044.0990 34.6790 1.2232
3540.00 1515.1110 1044.1444 34.6793 1.2207
3550.00 1515.2796 1044.1899 34.6795 1.2182
3560.00 1515.4482 1044.2354 34.6797 1.2157
3570.00 1515.6168 1044.2808 34.6799 1.2132
3580.00 1515.7853 1044.3263 34.6802 1.2107
3590.00 1515.9574 1044.3714 34.6803 1.2087
3600.00 1516.1300 1044.4165 34.6805 1.2068
3610.00 1516.3025 1044.4616 34.6807 1.2049
3620.00 1516.4751 1044.5067 34.6809 1.2030
3630.00 1516.6477 1044.5518 34.6810 1.2011
3640.00 1516.8203 1044.5969 34.6812 1.1992
3650.00 1516.9928 1044.6420 34.6814 1.1973
3660.00 1517.1654 1044.6871 34.6816 1.1954
3670.00 1517.3380 1044.7322 34.6817 1.1935
3680.00 1517.5105 1044.7774 34.6819 1.1916
3690.00 1517.6831 1044.8225 34.6821 1.1897
3700.00 1517.8557 1044.8676 34.6823 1.1878
3710.00 1518.0283 1044.9127 34.6825 1.1859
3720.00 1518.2008 1044.9578 34.6826 1.1840
3730.00 1518.3734 1045.0029 34.6828 1.1821
3740.00 1518.5460 1045.0480 34.6830 1.1802
3750.00 1518.7185 1045.0931 34.6832 1.1783
3760.00 1518.8911 1045.1382 34.6833 1.1764
3770.00 1519.0637 1045.1833 34.6835 1.1745
3780.00 1519.2363 1045.2284 34.6837 1.1726
3790.00 1519.4088 1045.2735 34.6839 1.1707
3800.00 1519.5814 1045.3186 34.6840 1.1688
3810.00 1519.7540 1045.3637 34.6842 1.1669
3820.00 1519.9265 1045.4088 34.6844 1.1650
3830.00 1520.0991 1045.4539 34.6846 1.1631
3840.00 1520.2717 1045.4990 34.6848 1.1612
3850.00 1520.4443 1045.5441 34.6849 1.1593
3860.00 1520.6168 1045.5892 34.6851 1.1574
3870.00 1520.7894 1045.6343 34.6853 1.1555
3880.00 1520.9620 1045.6794 34.6855 1.1536
3890.00 1521.1345 1045.7245 34.6856 1.1517
3900.00 1521.3071 1045.7696 34.6858 1.1498
3910.00 1521.4797 1045.8147 34.6860 1.1479
3920.00 1521.6546 1045.8596 34.6861 1.1463
3930.00 1521.8299 1045.9044 34.6863 1.1447
3940.00 1522.0051 1045.9491 34.6865 1.1431
3950.00 1522.1804 1045.9939 34.6866 1.1415
3960.00 1522.3557 1046.0387 34.6868 1.1399
3970.00 1522.5309 1046.0835 34.6869 1.1384
3980.00 1522.7062 1046.1283 34.6871 1.1368
3990.00 1522.8815 1046.1731 34.6872 1.1352
4000.00 1523.0567 1046.2179 34.6874 1.1336
4010.00 1523.2320 1046.2627 34.6875 1.1320
4020.00 1523.4073 1046.3075 34.6877 1.1304
4030.00 1523.5825 1046.3523 34.6878 1.1288
4040.00 1523.7578 1046.3971 34.6880 1.1272
4050.00 1523.9331 1046.4418 34.6881 1.1256
4060.00 1524.1084 1046.4866 34.6883 1.1240
4070.00 1524.2836 1046.5314 34.6884 1.1225
4080.00 1524.4589 1046.5762 34.6886 1.1209
4090.00 1524.6342 1046.6210 34.6887 1.1193
4100.00 1524.8094 1046.6658 34.6889 1.1177
4110.00 1524.9847 1046.7106 34.6890 1.1161
4120.00 1525.1600 1046.7554 34.6892 1.1145
4130.00 1525.3352 1046.8002 34.6893 1.1129
4140.00 1525.5105 1046.8450 34.6895 1.1113
4150.00 1525.6858 1046.8898 34.6896 1.1097
4160.00 1525.8610 1046.9345 34.6898 1.1082
4170.00 1526.0363 1046.9793 34.6899 1.1066
4180.00 1526.2116 1047.0241 34.6901 1.1050
4190.00 1526.3868 1047.0689 34.6903 1.1034
4200.00 1526.5621 1047.1137 34.6904 1.1018
4210.00 1526.7374 1047.1585 34.6906 1.1002
4220.00 1526.9126 1047.2033 34.6907 1.0986
4230.00 1527.0879 1047.2481 34.6909 1.0970
4240.00 1527.2632 1047.2929 34.6910 1.0954
4250.00 1527.4384 1047.3377 34.6912 1.0938
4260.00 1527.6137 1047.3824 34.6913 1.0923
4270.00 1527.7894 1047.4271 34.6915 1.0906
4280.00 1527.9655 1047.4717 34.6916 1.0889
4290.00 1528.1416 1047.5162 34.6918 1.0872
4300.00 1528.3177 1047.5608 34.6919 1.0855
4310.00 1528.4938 1047.6053 34.6921 1.0838
4320.00 1528.6699 1047.6499 34.6922 1.0821
4330.00 1528.8460 1047.6944 34.6924 1.0803
4340.00 1529.0221 1047.7390 34.6925 1.0786
4350.00 1529.1982 1047.7835 34.6927 1.0769
4360.00 1529.3743 1047.8281 34.6928 1.0752
4370.00 1529.5504 1047.8726 34.6930 1.0735
4380.00 1529.7265 1047.9172 34.6931 1.0718
4390.00 1529.9026 1047.9617 34.6933 1.0701
4400.00 1530.0787 1048.0063 34.6934 1.0684
4410.00 1530.2548 1048.0508 34.6936 1.0667
4420.00 1530.4309 1048.0954 34.6937 1.0650
4430.00 1530.6070 1048.1399 34.6939 1.0632
4440.00 1530.7831 1048.1845 34.6940 1.0615
4450.00 1530.9592 1048.2291 34.6941 1.0598
4460.00 1531.1353 1048.2736 34.6943 1.0581
4470.00 1531.3113 1048.3182 34.6944 1.0564
4480.00 1531.4874 1048.3627 34.6946 1.0547
4490.00 1531.6635 1048.4073 34.6947 1.0530
4500.00 1531.8396 1048.4518 34.6949 1.0513
4510.00 1532.0157 1048.4964 34.6950 1.0496
4520.00 1532.1918 1048.5409 34.6952 1.0479
4530.00 1532.3679 1048.5855 34.6953 1.0461
4540.00 1532.5440 1048.6300 34.6955 1.0444
4550.00 1532.7201 1048.6746 34.6956 1.0427
4560.00 1532.8962 1048.7191 34.6958 1.0410
4570.00 1533.0723 1048.7637 34.6959 1.0393
4580.00 1533.2484 1048.8082 34.6961 1.0376
4590.00 1533.4245 1048.8528 34.6962 1.0359
4600.00 1533.6006 1048.8973 34.6964 1.0342
4610.00 1533.7767 1048.9419 34.6965 1.0325
4620.00 1533.9528 1048.9865 34.6967 1.0308
4630.00 1534.1289 1049.0310 34.6968 1.0290
4640.00 1534.3050 1049.0756 34.6970 1.0273
4650.00 1534.4806 1049.1199 34.6971 1.0252
4660.00 1534.6561 1049.1643 34.6973 1.0231
4670.00 1534.8317 1049.2087 34.6975 1.0209
4680.00 1535.0073 1049.2531 34.6976 1.0188
4690.00 1535.1828 1049.2974 34.6978 1.0166
4700.00 1535.3584 1049.3418 34.6979 1.0145
4710.00 1535.5340 1049.3862 34.6981 1.0124
4720.00 1535.7095 1049.4306 34.6983 1.0102
4730.00 1535.8851 1049.4749 34.6984 1.0081
4740.00 1536.0607 1049.5193 34.6986 1.0059
4750.00 1536.2363 1049.5637 34.6987 1.0038
4760.00 1536.4118 1049.6081 34.6989 1.0016
4770.00 1536.5874 1049.6524 34.6991 0.9995
4780.00 1536.7630 1049.6968 34.6992 0.9974
4790.00 1536.9385 1049.7412 34.6994 0.9952
4800.00 1537.1141 1049.7856 34.6995 0.9931
4810.00 1537.2897 1049.8300 34.6997 0.9909
4820.00 1537.4652 1049.8743 34.6999 0.9888
4830.00 1537.6408 1049.9187 34.7000 0.9866
4840.00 1537.8164 1049.9631 34.7002 0.9845
4850.00 1537.9920 1050.0075 34.7003 0.9824
4860.00 1538.1675 1050.0518 34.7005 0.9802
4870.00 1538.3431 1050.0962 34.7007 0.9781
4880.00 1538.5187 1050.1406 34.7008 0.9759
4890.00 1538.6942 1050.1850 34.7010 0.9738
4900.00 1538.8698 1050.2293 34.7011 0.9716
4910.00 1539.0454 1050.2737 34.7013 0.9695
4920.00 1539.2209 1050.3181 34.7015 0.9674
4930.00 1539.3965 1050.3625 34.7016 0.9652
4940.00 1539.5721 1050.4068 34.7018 0.9631
4950.00 1539.7477 1050.4512 34.7019 0.9609
4960.00 1539.9232 1050.4956 34.7021 0.9588
4970.00 1540.0988 1050.5400 34.7023 0.9566
4980.00 1540.2744 1050.5843 34.7024 0.9545
4990.00 1540.4499 1050.6287 34.7026 0.9524
5000.00 1540.6255 1050.6731 34.7027 0.9502
5010.00 1540.8011 1050.7175 34.7029 0.9481
5020.00 1540.9766 1050.7618 34.7030 0.9459
5030.00 1541.1522 1050.8062 34.7032 0.9438
5040.00 1541.3280 1050.8506 34.7034 0.9417
5050.00 1541.5071 1050.8945 34.7035 0.9400
5060.00 1541.6861 1050.9385 34.7036 0.9383
5070.00 1541.8651 1050.9825 34.7037 0.9367
5080.00 1542.0441 1051.0265 34.7038 0.9350
5090.00 1542.2231 1051.0704 34.7040 0.9333
5100.00 1542.4021 1051.1144 34.7041 0.9317
5110.00 1542.5811 1051.1584 34.7042 0.9300
5120.00 1542.7601 1051.2024 34.7043 0.9283
5130.00 1542.9392 1051.2463 34.7045 0.9266
5140.00 1543.1182 1051.2903 34.7046 0.9250
5150.00 1543.2972 1051.3343 34.7047 0.9233
5160.00 1543.4762 1051.3783 34.7048 0.9216
5170.00 1543.6552 1051.4222 34.7049 0.9200
5180.00 1543.8342 1051.4662 34.7051 0.9183
5190.00 1544.0132 1051.5102 34.7052 0.9166
5200.00 1544.1922 1051.5542 34.7053 0.9149
5210.00 1544.3712 1051.5981 34.7054 0.9133
5220.00 1544.5503 1051.6421 34.7055 0.9116
5230.00 1544.7293 1051.6861 34.7057 0.9099
5240.00 1544.9083 1051.7301 34.7058 0.9083
5250.00 1545.0873 1051.7740 34.7059 0.9066
5260.00 1545.2663 1051.8180 34.7060 0.9049
