# Averages over distance (i) for each depth (k):
# Depth(m) Speed(m/s) Density(kg/m^3) Salt PSU Theta(degC)
0.00 1511.9417 1024.9908 34.3053 16.9784
10.00 1512.0174 1025.0413 34.3038 16.9478
20.00 1511.9444 1025.1016 34.3001 16.8686
30.00 1511.4885 1025.1860 34.2901 16.6658
40.00 1510.5495 1025.2998 34.2727 16.3091
50.00 1509.2125 1025.4363 34.2497 15.8294
60.00 1507.6777 1025.5812 34.2239 15.2939
70.00 1506.1292 1025.7228 34.1981 14.7615
80.00 1504.6920 1025.8538 34.1732 14.2706
90.00 1503.4150 1025.9715 34.1487 13.8349
100.00 1502.2877 1026.0770 34.1241 13.4496
110.00 1501.2786 1026.1738 34.1000 13.1035
120.00 1500.3388 1026.2664 34.0778 12.7804
130.00 1499.4043 1026.3597 34.0585 12.4605
140.00 1498.4408 1026.4568 34.0433 12.1330
150.00 1497.4855 1026.5632 34.0418 11.8064
160.00 1496.5864 1026.6758 34.0527 11.4939
170.00 1495.7329 1026.7934 34.0737 11.1926
180.00 1495.0146 1026.9154 34.1100 10.9273
190.00 1494.3391 1027.0388 34.1511 10.6733
200.00 1493.7559 1027.1591 34.1952 10.4460
210.00 1493.2559 1027.2768 34.2419 10.2426
220.00 1492.7559 1027.3944 34.2886 10.0393
230.00 1492.3120 1027.5004 34.3258 9.8569
240.00 1491.8889 1027.6021 34.3595 9.6823
250.00 1491.4658 1027.7037 34.3932 9.5077
260.00 1491.0389 1027.8002 34.4209 9.3349
270.00 1490.6007 1027.8815 34.4311 9.1673
280.00 1490.1625 1027.9627 34.4412 8.9998
290.00 1489.7243 1028.0439 34.4514 8.8322
300.00 1489.2859 1028.1251 34.4614 8.6646
310.00 1488.8169 1028.1923 34.4552 8.4979
320.00 1488.3479 1028.2596 34.4491 8.3311
330.00 1487.8790 1028.3269 34.4429 8.1643
340.00 1487.4100 1028.3942 34.4367 7.9976
350.00 1486.9410 1028.4614 34.4306 7.8308
360.00 1486.5205 1028.5218 34.4204 7.6814
370.00 1486.1035 1028.5818 34.4099 7.5332
380.00 1485.6865 1028.6417 34.3995 7.3850
390.00 1485.2695 1028.7016 34.3890 7.2369
400.00 1484.8525 1028.7615 34.3785 7.0887
410.00 1484.4366 1028.8214 34.3681 6.9408
420.00 1484.1721 1028.8765 34.3603 6.8336
430.00 1483.9077 1028.9317 34.3524 6.7263
440.00 1483.6432 1028.9869 34.3446 6.6190
450.00 1483.3787 1029.0420 34.3368 6.5118
460.00 1483.1143 1029.0972 34.3290 6.4045
470.00 1482.8498 1029.1524 34.3211 6.2972
480.00 1482.6221 1029.2070 34.3144 6.1992
490.00 1482.5030 1029.2601 34.3109 6.1285
500.00 1482.3838 1029.3132 34.3074 6.0579
510.00 1482.2647 1029.3663 34.3040 5.9872
520.00 1482.1456 1029.4194 34.3005 5.9165
530.00 1482.0265 1029.4725 34.2970 5.8459
540.00 1481.9073 1029.5256 34.2935 5.7752
550.00 1481.7882 1029.5787 34.2900 5.7045
560.00 1481.7239 1029.6317 34.2889 5.6472
570.00 1481.6800 1029.6847 34.2887 5.5949
580.00 1481.6361 1029.7378 34.2885 5.5426
590.00 1481.5922 1029.7908 34.2883 5.4902
600.00 1481.5483 1029.8438 34.2881 5.4379
610.00 1481.5044 1029.8968 34.2879 5.3856
620.00 1481.4605 1029.9499 34.2877 5.3332
630.00 1481.4166 1030.0029 34.2875 5.2809
640.00 1481.3850 1030.0563 34.2884 5.2315
650.00 1481.3645 1030.1102 34.2903 5.1847
660.00 1481.3440 1030.1640 34.2921 5.1380
670.00 1481.3235 1030.2178 34.2939 5.0912
680.00 1481.3030 1030.2716 34.2958 5.0444
690.00 1481.2825 1030.3254 34.2976 4.9977
700.00 1481.2620 1030.3792 34.2995 4.9509
710.00 1481.2415 1030.4331 34.3013 4.9042
720.00 1481.2210 1030.4869 34.3031 4.8574
730.00 1481.2072 1030.5413 34.3061 4.8122
740.00 1481.1955 1030.5960 34.3094 4.7676
750.00 1481.1838 1030.6506 34.3127 4.7229
760.00 1481.1721 1030.7053 34.3161 4.6782
770.00 1481.1604 1030.7599 34.3194 4.6335
780.00 1481.1486 1030.8146 34.3227 4.5889
790.00 1481.1369 1030.8692 34.3260 4.5442
800.00 1481.1252 1030.9239 34.3293 4.4995
810.00 1481.1135 1030.9785 34.3327 4.4548
820.00 1481.1117 1031.0333 34.3366 4.4125
830.00 1481.1179 1031.0883 34.3411 4.3722
840.00 1481.1240 1031.1432 34.3455 4.3318
850.00 1481.1302 1031.1981 34.3500 4.2914
860.00 1481.1364 1031.2531 34.3544 4.2511
870.00 1481.1426 1031.3080 34.3589 4.2107
880.00 1481.1488 1031.3629 34.3633 4.1703
890.00 1481.1550 1031.4179 34.3678 4.1300
900.00 1481.1612 1031.4728 34.3722 4.0896
910.00 1481.1682 1031.5277 34.3767 4.0494
920.00 1481.2061 1031.5819 34.3815 4.0168
930.00 1481.2440 1031.6361 34.3863 3.9841
940.00 1481.2819 1031.6903 34.3911 3.9514
950.00 1481.3198 1031.7445 34.3959 3.9187
960.00 1481.3577 1031.7987 34.4008 3.8861
970.00 1481.3956 1031.8529 34.4056 3.8534
980.00 1481.4335 1031.9071 34.4104 3.8207
990.00 1481.4714 1031.9614 34.4152 3.7880
1000.00 1481.5093 1032.0156 34.4200 3.7553
1010.00 1481.5554 1032.0694 34.4247 3.7247
1020.00 1481.6221 1032.1223 34.4290 3.6991
1030.00 1481.6887 1032.1751 34.4333 3.6735
1040.00 1481.7554 1032.2280 34.4376 3.6479
1050.00 1481.8220 1032.2809 34.4419 3.6223
1060.00 1481.8887 1032.3338 34.4462 3.5967
1070.00 1481.9554 1032.3867 34.4505 3.5711
1080.00 1482.0220 1032.4396 34.4548 3.5455
1090.00 1482.0887 1032.4924 34.4591 3.5199
1100.00 1482.1553 1032.5453 34.4634 3.4943
1110.00 1482.2283 1032.5977 34.4674 3.4703
1120.00 1482.3105 1032.6494 34.4708 3.4487
1130.00 1482.3927 1032.7011 34.4743 3.4271
1140.00 1482.4749 1032.7528 34.4778 3.4054
1150.00 1482.5571 1032.8045 34.4813 3.3838
1160.00 1482.6393 1032.8562 34.4848 3.3621
1170.00 1482.7215 1032.9079 34.4882 3.3405
1180.00 1482.8036 1032.9597 34.4917 3.3189
1190.00 1482.8858 1033.0114 34.4952 3.2972
1200.00 1482.9680 1033.0631 34.4987 3.2756
1210.00 1483.0535 1033.1144 34.5018 3.2548
1220.00 1483.1432 1033.1653 34.5046 3.2352
1230.00 1483.2329 1033.2161 34.5074 3.2155
1240.00 1483.3225 1033.2670 34.5102 3.1959
1250.00 1483.4122 1033.3179 34.5129 3.1762
1260.00 1483.5019 1033.3687 34.5157 3.1566
1270.00 1483.5916 1033.4196 34.5185 3.1369
1280.00 1483.6812 1033.4704 34.5212 3.1173
1290.00 1483.7709 1033.5213 34.5240 3.0976
1300.00 1483.8606 1033.5722 34.5268 3.0780
1310.00 1483.9520 1033.6228 34.5294 3.0588
1320.00 1484.0464 1033.6731 34.5317 3.0404
1330.00 1484.1408 1033.7234 34.5339 3.0220
1340.00 1484.2352 1033.7737 34.5362 3.0036
1350.00 1484.3296 1033.8240 34.5385 2.9852
1360.00 1484.4240 1033.8743 34.5408 2.9668
1370.00 1484.5184 1033.9246 34.5431 2.9484
1380.00 1484.6128 1033.9749 34.5454 2.9300
1390.00 1484.7072 1034.0252 34.5477 2.9116
1400.00 1484.8016 1034.0755 34.5500 2.8932
1410.00 1484.8963 1034.1258 34.5522 2.8749
1420.00 1484.9949 1034.1756 34.5542 2.8576
1430.00 1485.0935 1034.2255 34.5562 2.8402
1440.00 1485.1920 1034.2754 34.5581 2.8229
1450.00 1485.2906 1034.3253 34.5601 2.8056
1460.00 1485.3891 1034.3751 34.5620 2.7882
1470.00 1485.4877 1034.4250 34.5640 2.7709
1480.00 1485.5862 1034.4749 34.5660 2.7535
1490.00 1485.6848 1034.5248 34.5679 2.7362
1500.00 1485.7833 1034.5746 34.5699 2.7188
1510.00 1485.8819 1034.6245 34.5719 2.7015
1520.00 1485.9819 1034.6743 34.5737 2.6845
1530.00 1486.0855 1034.7237 34.5754 2.6684
1540.00 1486.1891 1034.7732 34.5771 2.6523
1550.00 1486.2927 1034.8227 34.5788 2.6361
1560.00 1486.3964 1034.8721 34.5805 2.6200
1570.00 1486.5000 1034.9216 34.5822 2.6039
1580.00 1486.6036 1034.9710 34.5839 2.5878
1590.00 1486.7072 1035.0205 34.5856 2.5717
1600.00 1486.8108 1035.0700 34.5873 2.5556
1610.00 1486.9144 1035.1194 34.5890 2.5394
1620.00 1487.0180 1035.1689 34.5907 2.5233
1630.00 1487.1217 1035.2183 34.5924 2.5072
1640.00 1487.2295 1035.2675 34.5939 2.4921
1650.00 1487.3405 1035.3165 34.5953 2.4777
1660.00 1487.4515 1035.3655 34.5967 2.4633
1670.00 1487.5624 1035.4145 34.5982 2.4489
1680.00 1487.6734 1035.4635 34.5996 2.4345
1690.00 1487.7844 1035.5125 34.6010 2.4201
1700.00 1487.8953 1035.5615 34.6024 2.4057
1710.00 1488.0063 1035.6105 34.6039 2.3913
1720.00 1488.1172 1035.6595 34.6053 2.3769
1730.00 1488.2282 1035.7085 34.6067 2.3624
1740.00 1488.3392 1035.7575 34.6081 2.3480
1750.00 1488.4501 1035.8065 34.6096 2.3336
1760.00 1488.5611 1035.8555 34.6110 2.3192
1770.00 1488.6767 1035.9042 34.6123 2.3059
1780.00 1488.7972 1035.9527 34.6134 2.2937
1790.00 1488.9177 1036.0011 34.6146 2.2814
1800.00 1489.0382 1036.0496 34.6158 2.2692
1810.00 1489.1586 1036.0981 34.6169 2.2570
1820.00 1489.2791 1036.1465 34.6181 2.2447
1830.00 1489.3996 1036.1950 34.6193 2.2325
1840.00 1489.5201 1036.2434 34.6204 2.2203
1850.00 1489.6406 1036.2919 34.6216 2.2081
1860.00 1489.7611 1036.3403 34.6227 2.1958
1870.00 1489.8816 1036.3888 34.6239 2.1836
1880.00 1490.0021 1036.4373 34.6251 2.1714
1890.00 1490.1226 1036.4857 34.6262 2.1591
1900.00 1490.2431 1036.5342 34.6274 2.1469
1910.00 1490.3636 1036.5826 34.6285 2.1347
1920.00 1490.4904 1036.6308 34.6296 2.1238
1930.00 1490.6217 1036.6787 34.6305 2.1140
1940.00 1490.7529 1036.7266 34.6314 2.1042
1950.00 1490.8842 1036.7744 34.6323 2.0944
1960.00 1491.0154 1036.8223 34.6332 2.0845
1970.00 1491.1467 1036.8702 34.6342 2.0747
1980.00 1491.2780 1036.9181 34.6351 2.0649
1990.00 1491.4092 1036.9660 34.6360 2.0550
2000.00 1491.5405 1037.0139 34.6369 2.0452
2010.00 1491.6718 1037.0618 34.6378 2.0354
2020.00 1491.8030 1037.1097 34.6387 2.0255
2030.00 1491.9343 1037.1576 34.6397 2.0157
2040.00 1492.0655 1037.2055 34.6406 2.0059
2050.00 1492.1968 1037.2534 34.6415 1.9961
2060.00 1492.3281 1037.3013 34.6424 1.9862
2070.00 1492.4593 1037.3492 34.6433 1.9764
2080.00 1492.5906 1037.3970 34.6442 1.9666
2090.00 1492.7281 1037.4446 34.6450 1.9581
2100.00 1492.8699 1037.4920 34.6458 1.9506
2110.00 1493.0118 1037.5393 34.6465 1.9430
2120.00 1493.1536 1037.5866 34.6472 1.9355
2130.00 1493.2954 1037.6340 34.6479 1.9279
2140.00 1493.4372 1037.6813 34.6486 1.9204
2150.00 1493.5790 1037.7287 34.6493 1.9129
2160.00 1493.7208 1037.7760 34.6500 1.9053
2170.00 1493.8626 1037.8233 34.6507 1.8978
2180.00 1494.0044 1037.8707 34.6514 1.8902
2190.00 1494.1462 1037.9180 34.6521 1.8827
2200.00 1494.2880 1037.9654 34.6528 1.8752
2210.00 1494.4298 1038.0127 34.6535 1.8676
2220.00 1494.5716 1038.0600 34.6543 1.8601
2230.00 1494.7134 1038.1074 34.6550 1.8526
2240.00 1494.8552 1038.1547 34.6557 1.8450
2250.00 1494.9971 1038.2021 34.6564 1.8375
2260.00 1495.1389 1038.2494 34.6571 1.8299
2270.00 1495.2807 1038.2967 34.6578 1.8224
2280.00 1495.4260 1038.3439 34.6584 1.8156
2290.00 1495.5773 1038.3907 34.6590 1.8101
2300.00 1495.7286 1038.4375 34.6595 1.8045
2310.00 1495.8798 1038.4843 34.6600 1.7990
2320.00 1496.0311 1038.5312 34.6606 1.7934
2330.00 1496.1823 1038.5780 34.6611 1.7879
2340.00 1496.3336 1038.6248 34.6616 1.7823
2350.00 1496.4849 1038.6716 34.6621 1.7768
2360.00 1496.6361 1038.7184 34.6627 1.7713
2370.00 1496.7874 1038.7653 34.6632 1.7657
2380.00 1496.9386 1038.8121 34.6637 1.7602
2390.00 1497.0899 1038.8589 34.6643 1.7546
2400.00 1497.2412 1038.9057 34.6648 1.7491
2410.00 1497.3924 1038.9525 34.6653 1.7435
2420.00 1497.5437 1038.9994 34.6659 1.7380
2430.00 1497.6949 1039.0462 34.6664 1.7324
2440.00 1497.8462 1039.0930 34.6669 1.7269
2450.00 1497.9975 1039.1398 34.6674 1.7213
2460.00 1498.1487 1039.1866 34.6680 1.7158
2470.00 1498.3000 1039.2335 34.6685 1.7103
2480.00 1498.4512 1039.2803 34.6690 1.7047
2490.00 1498.6025 1039.3271 34.6696 1.6992
2500.00 1498.7602 1039.3735 34.6700 1.6949
2510.00 1498.9188 1039.4199 34.6704 1.6908
2520.00 1499.0774 1039.4662 34.6707 1.6868
2530.00 1499.2360 1039.5126 34.6711 1.6827
2540.00 1499.3946 1039.5590 34.6715 1.6786
2550.00 1499.5532 1039.6054 34.6719 1.6746
2560.00 1499.7118 1039.6517 34.6723 1.6705
2570.00 1499.8704 1039.6981 34.6727 1.6664
2580.00 1500.0290 1039.7445 34.6731 1.6624
2590.00 1500.1876 1039.7908 34.6735 1.6583
2600.00 1500.3462 1039.8372 34.6738 1.6542
2610.00 1500.5048 1039.8836 34.6742 1.6501
2620.00 1500.6634 1039.9299 34.6746 1.6461
2630.00 1500.8221 1039.9763 34.6750 1.6420
2640.00 1500.9807 1040.0227 34.6754 1.6379
2650.00 1501.1393 1040.0690 34.6758 1.6339
2660.00 1501.2979 1040.1154 34.6762 1.6298
2670.00 1501.4565 1040.1618 34.6766 1.6257
2680.00 1501.6151 1040.2081 34.6769 1.6217
2690.00 1501.7737 1040.2545 34.6773 1.6176
2700.00 1501.9323 1040.3009 34.6777 1.6135
2710.00 1502.0909 1040.3472 34.6781 1.6095
2720.00 1502.2495 1040.3936 34.6785 1.6054
2730.00 1502.4085 1040.4399 34.6789 1.6014
2740.00 1502.5730 1040.4859 34.6791 1.5984
2750.00 1502.7374 1040.5319 34.6794 1.5955
2760.00 1502.9018 1040.5778 34.6797 1.5925
2770.00 1503.0662 1040.6238 34.6800 1.5895
2780.00 1503.2307 1040.6697 34.6802 1.5865
2790.00 1503.3951 1040.7157 34.6805 1.5836
2800.00 1503.5595 1040.7616 34.6808 1.5806
2810.00 1503.7239 1040.8076 34.6810 1.5776
2820.00 1503.8884 1040.8536 34.6813 1.5747
2830.00 1504.0528 1040.8995 34.6816 1.5717
2840.00 1504.2172 1040.9455 34.6818 1.5687
2850.00 1504.3816 1040.9914 34.6821 1.5658
2860.00 1504.5461 1041.0374 34.6824 1.5628
2870.00 1504.7105 1041.0833 34.6827 1.5598
2880.00 1504.8749 1041.1293 34.6829 1.5568
2890.00 1505.0393 1041.1753 34.6832 1.5539
2900.00 1505.2037 1041.2212 34.6835 1.5509
2910.00 1505.3682 1041.2672 34.6837 1.5479
2920.00 1505.5326 1041.3131 34.6840 1.5450
2930.00 1505.6970 1041.3591 34.6843 1.5420
2940.00 1505.8614 1041.4050 34.6846 1.5390
2950.00 1506.0259 1041.4510 34.6848 1.5361
2960.00 1506.1903 1041.4970 34.6851 1.5331
2970.00 1506.3547 1041.5429 34.6854 1.5301
2980.00 1506.5191 1041.5889 34.6856 1.5271
2990.00 1506.6836 1041.6348 34.6859 1.5242
3000.00 1506.8518 1041.6805 34.6861 1.5218
3010.00 1507.0201 1041.7261 34.6863 1.5195
3020.00 1507.1884 1041.7717 34.6865 1.5171
3030.00 1507.3567 1041.8173 34.6867 1.5148
3040.00 1507.5249 1041.8630 34.6869 1.5125
3050.00 1507.6932 1041.9086 34.6871 1.5101
3060.00 1507.8615 1041.9542 34.6873 1.5078
3070.00 1508.0298 1041.9998 34.6875 1.5054
3080.00 1508.1981 1042.0454 34.6877 1.5031
3090.00 1508.3664 1042.0911 34.6879 1.5008
3100.00 1508.5347 1042.1367 34.6881 1.4984
3110.00 1508.7030 1042.1823 34.6883 1.4961
3120.00 1508.8713 1042.2279 34.6885 1.4937
3130.00 1509.0396 1042.2736 34.6887 1.4914
3140.00 1509.2079 1042.3192 34.6889 1.4891
3150.00 1509.3762 1042.3648 34.6891 1.4867
3160.00 1509.5445 1042.4104 34.6893 1.4844
3170.00 1509.7128 1042.4561 34.6895 1.4820
3180.00 1509.8811 1042.5017 34.6897 1.4797
3190.00 1510.0494 1042.5473 34.6899 1.4774
3200.00 1510.2177 1042.5929 34.6901 1.4750
3210.00 1510.3860 1042.6386 34.6903 1.4727
3220.00 1510.5543 1042.6842 34.6905 1.4703
3230.00 1510.7226 1042.7298 34.6907 1.4680
3240.00 1510.8909 1042.7754 34.6909 1.4657
3250.00 1511.0592 1042.8211 34.6911 1.4633
3260.00 1511.2275 1042.8667 34.6913 1.4610
3270.00 1511.3958 1042.9123 34.6915 1.4586
3280.00 1511.5663 1042.9577 34.6917 1.4567
3290.00 1511.7386 1043.0030 34.6918 1.4549
3300.00 1511.9108 1043.0483 34.6920 1.4532
3310.00 1512.0830 1043.0936 34.6921 1.4515
3320.00 1512.2552 1043.1389 34.6923 1.4498
3330.00 1512.4275 1043.1842 34.6924 1.4481
3340.00 1512.5997 1043.2294 34.6926 1.4463
3350.00 1512.7719 1043.2747 34.6928 1.4446
3360.00 1512.9441 1043.3200 34.6929 1.4429
3370.00 1513.1164 1043.3653 34.6931 1.4412
3380.00 1513.2886 1043.4106 34.6932 1.4394
3390.00 1513.4608 1043.4559 34.6934 1.4377
3400.00 1513.6330 1043.5012 34.6935 1.4360
3410.00 1513.8053 1043.5464 34.6937 1.4343
3420.00 1513.9775 1043.5917 34.6938 1.4326
3430.00 1514.1497 1043.6370 34.6940 1.4308
3440.00 1514.3219 1043.6823 34.6941 1.4291
3450.00 1514.4941 1043.7276 34.6943 1.4274
3460.00 1514.6664 1043.7729 34.6944 1.4257
3470.00 1514.8386 1043.8182 34.6946 1.4239
3480.00 1515.0108 1043.8634 34.6947 1.4222
3490.00 1515.1830 1043.9087 34.6949 1.4205
3500.00 1515.3553 1043.9540 34.6951 1.4188
3510.00 1515.5275 1043.9993 34.6952 1.4171
3520.00 1515.6997 1044.0446 34.6954 1.4153
3530.00 1515.8719 1044.0899 34.6955 1.4136
3540.00 1516.0442 1044.1352 34.6957 1.4119
3550.00 1516.2164 1044.1804 34.6958 1.4102
3560.00 1516.3886 1044.2257 34.6960 1.4085
3570.00 1516.5608 1044.2710 34.6961 1.4067
3580.00 1516.7331 1044.3163 34.6963 1.4050
3590.00 1516.9125 1044.3611 34.6963 1.4047
3600.00 1517.0929 1044.4057 34.6963 1.4046
3610.00 1517.2733 1044.4504 34.6963 1.4044
3620.00 1517.4538 1044.4951 34.6964 1.4043
3630.00 1517.6342 1044.5398 34.6964 1.4042
3640.00 1517.8147 1044.5845 34.6964 1.4040
3650.00 1517.9951 1044.6291 34.6964 1.4039
3660.00 1518.1755 1044.6738 34.6964 1.4038
3670.00 1518.3560 1044.7185 34.6964 1.4037
3680.00 1518.5364 1044.7632 34.6964 1.4035
3690.00 1518.7168 1044.8079 34.6965 1.4034
3700.00 1518.8973 1044.8525 34.6965 1.4033
3710.00 1519.0777 1044.8972 34.6965 1.4031
3720.00 1519.2582 1044.9419 34.6965 1.4030
3730.00 1519.4386 1044.9866 34.6965 1.4029
3740.00 1519.6190 1045.0313 34.6965 1.4028
3750.00 1519.7995 1045.0759 34.6965 1.4026
3760.00 1519.9799 1045.1206 34.6966 1.4025
3770.00 1520.1603 1045.1653 34.6966 1.4024
3780.00 1520.3408 1045.2100 34.6966 1.4022
3790.00 1520.5212 1045.2547 34.6966 1.4021
3800.00 1520.7017 1045.2993 34.6966 1.4020
3810.00 1520.8821 1045.3440 34.6966 1.4019
3820.00 1521.0625 1045.3887 34.6966 1.4017
3830.00 1521.2430 1045.4334 34.6966 1.4016
3840.00 1521.4234 1045.4780 34.6967 1.4015
3850.00 1521.6038 1045.5227 34.6967 1.4013
3860.00 1521.7843 1045.5674 34.6967 1.4012
3870.00 1521.9647 1045.6121 34.6967 1.4011
3880.00 1522.1452 1045.6568 34.6967 1.4010
3890.00 1522.3256 1045.7014 34.6967 1.4008
3900.00 1522.5060 1045.7461 34.6967 1.4007
3910.00 1522.6865 1045.7908 34.6968 1.4006
3920.00 nan nan nan nan
3930.00 nan nan nan nan
3940.00 nan nan nan nan
3950.00 nan nan nan nan
3960.00 nan nan nan nan
3970.00 nan nan nan nan
3980.00 nan nan nan nan
3990.00 nan nan nan nan
4000.00 nan nan nan nan
4010.00 nan nan nan nan
4020.00 nan nan nan nan
4030.00 nan nan nan nan
4040.00 nan nan nan nan
4050.00 nan nan nan nan
4060.00 nan nan nan nan
4070.00 nan nan nan nan
4080.00 nan nan nan nan
4090.00 nan nan nan nan
4100.00 nan nan nan nan
4110.00 nan nan nan nan
4120.00 nan nan nan nan
4130.00 nan nan nan nan
4140.00 nan nan nan nan
4150.00 nan nan nan nan
4160.00 nan nan nan nan
4170.00 nan nan nan nan
4180.00 nan nan nan nan
4190.00 nan nan nan nan
4200.00 nan nan nan nan
