# Averages over distance (i) for each depth (k):
# Depth(m) Speed(m/s) Density(kg/m^3) Salt PSU Theta(degC)
0.00 1541.0927 1022.4627 35.0532 27.9170
10.00 1541.2331 1022.5116 35.0544 27.9025
20.00 1541.3297 1022.5697 35.0587 27.8665
30.00 1541.2984 1022.6552 35.0722 27.7675
40.00 1541.1093 1022.7710 35.0935 27.5933
50.00 1540.8168 1022.9014 35.1148 27.3734
60.00 1540.4856 1023.0340 35.1333 27.1391
70.00 1540.1281 1023.1682 35.1504 26.8955
80.00 1539.7136 1023.3099 35.1681 26.6283
90.00 1539.1930 1023.4660 35.1870 26.3165
100.00 1538.4982 1023.6439 35.2057 25.9326
110.00 1537.5502 1023.8481 35.2195 25.4482
120.00 1536.3200 1024.0741 35.2219 24.8585
130.00 1534.8544 1024.3110 35.2101 24.1889
140.00 1533.2317 1024.5494 35.1863 23.4731
150.00 1531.5303 1024.7747 35.1500 22.7519
160.00 1529.8516 1024.9865 35.1095 22.0543
170.00 1528.1911 1025.1875 35.0655 21.3759
180.00 1526.6040 1025.3685 35.0191 20.7445
190.00 1525.0399 1025.5434 34.9721 20.1279
200.00 1523.5334 1025.7060 34.9254 19.5447
210.00 1522.0787 1025.8576 34.8791 18.9916
220.00 1520.6239 1026.0092 34.8329 18.4385
230.00 1519.2308 1026.1476 34.7889 17.9235
240.00 1517.8606 1026.2812 34.7457 17.4226
250.00 1516.4905 1026.4148 34.7025 16.9217
260.00 1515.1319 1026.5451 34.6605 16.4304
270.00 1513.8074 1026.6657 34.6221 15.9673
280.00 1512.4830 1026.7863 34.5836 15.5042
290.00 1511.1585 1026.9070 34.5452 15.0411
300.00 1509.8345 1027.0275 34.5068 14.5783
310.00 1508.5744 1027.1371 34.4761 14.1567
320.00 1507.3142 1027.2467 34.4453 13.7351
330.00 1506.0540 1027.3563 34.4146 13.3135
340.00 1504.7939 1027.4659 34.3839 12.8919
350.00 1503.5337 1027.5755 34.3532 12.4703
360.00 1502.4057 1027.6750 34.3328 12.1044
370.00 1501.2874 1027.7738 34.3131 11.7426
380.00 1500.1691 1027.8726 34.2934 11.3808
390.00 1499.0508 1027.9714 34.2737 11.0189
400.00 1497.9325 1028.0701 34.2541 10.6571
410.00 1496.8159 1028.1688 34.2345 10.2958
420.00 1495.9391 1028.2569 34.2271 10.0139
430.00 1495.0624 1028.3449 34.2197 9.7320
440.00 1494.1856 1028.4330 34.2123 9.4500
450.00 1493.3088 1028.5210 34.2049 9.1681
460.00 1492.4321 1028.6091 34.1975 8.8862
470.00 1491.5553 1028.6971 34.1901 8.6042
480.00 1490.7558 1028.7827 34.1852 8.3445
490.00 1490.1843 1028.8609 34.1880 8.1506
500.00 1489.6129 1028.9390 34.1908 7.9567
510.00 1489.0414 1029.0172 34.1936 7.7627
520.00 1488.4700 1029.0954 34.1964 7.5688
530.00 1487.8985 1029.1735 34.1992 7.3749
540.00 1487.3270 1029.2517 34.2020 7.1809
550.00 1486.7556 1029.3299 34.2048 6.9870
560.00 1486.3880 1029.4021 34.2118 6.8475
570.00 1486.0962 1029.4721 34.2204 6.7283
580.00 1485.8045 1029.5421 34.2289 6.6090
590.00 1485.5127 1029.6121 34.2375 6.4898
600.00 1485.2209 1029.6820 34.2461 6.3705
610.00 1484.9291 1029.7520 34.2547 6.2513
620.00 1484.6373 1029.8220 34.2632 6.1320
630.00 1484.3455 1029.8920 34.2718 6.0128
640.00 1484.1466 1029.9587 34.2809 5.9176
650.00 1484.0311 1030.0225 34.2905 5.8441
660.00 1483.9157 1030.0863 34.3001 5.7706
670.00 1483.8002 1030.1500 34.3096 5.6971
680.00 1483.6848 1030.2138 34.3192 5.6236
690.00 1483.5693 1030.2776 34.3288 5.5501
700.00 1483.4539 1030.3414 34.3383 5.4766
710.00 1483.3384 1030.4052 34.3479 5.4031
720.00 1483.2230 1030.4689 34.3575 5.3296
730.00 1483.1659 1030.5292 34.3655 5.2716
740.00 1483.1272 1030.5884 34.3729 5.2185
750.00 1483.0885 1030.6475 34.3804 5.1654
760.00 1483.0498 1030.7066 34.3879 5.1124
770.00 1483.0112 1030.7658 34.3953 5.0593
780.00 1482.9725 1030.8249 34.4028 5.0062
790.00 1482.9338 1030.8841 34.4103 4.9531
800.00 1482.8951 1030.9432 34.4177 4.9000
810.00 1482.8565 1031.0024 34.4252 4.8470
820.00 1482.8358 1031.0597 34.4312 4.7990
830.00 1482.8297 1031.1154 34.4361 4.7552
840.00 1482.8236 1031.1712 34.4410 4.7113
850.00 1482.8175 1031.2270 34.4458 4.6675
860.00 1482.8114 1031.2827 34.4507 4.6237
870.00 1482.8052 1031.3385 34.4555 4.5798
880.00 1482.7991 1031.3942 34.4604 4.5360
890.00 1482.7930 1031.4500 34.4652 4.4922
900.00 1482.7869 1031.5058 34.4701 4.4483
910.00 1482.7814 1031.5615 34.4749 4.4047
920.00 1482.7964 1031.6150 34.4780 4.3668
930.00 1482.8115 1031.6685 34.4811 4.3290
940.00 1482.8266 1031.7220 34.4842 4.2911
950.00 1482.8416 1031.7756 34.4873 4.2533
960.00 1482.8567 1031.8291 34.4904 4.2155
970.00 1482.8718 1031.8826 34.4935 4.1776
980.00 1482.8869 1031.9361 34.4966 4.1398
990.00 1482.9019 1031.9897 34.4997 4.1020
1000.00 1482.9170 1032.0432 34.5028 4.0641
1010.00 1482.9368 1032.0963 34.5057 4.0276
1020.00 1482.9684 1032.1485 34.5079 3.9942
1030.00 1483.0000 1032.2006 34.5100 3.9609
1040.00 1483.0316 1032.2528 34.5122 3.9275
1050.00 1483.0633 1032.3050 34.5144 3.8941
1060.00 1483.0949 1032.3571 34.5166 3.8608
1070.00 1483.1265 1032.4093 34.5188 3.8274
1080.00 1483.1581 1032.4615 34.5209 3.7941
1090.00 1483.1898 1032.5136 34.5231 3.7607
1100.00 1483.2214 1032.5658 34.5253 3.7274
1110.00 1483.2583 1032.6176 34.5273 3.6954
1120.00 1483.3030 1032.6689 34.5289 3.6655
1130.00 1483.3476 1032.7202 34.5306 3.6355
1140.00 1483.3922 1032.7715 34.5323 3.6056
1150.00 1483.4369 1032.8228 34.5340 3.5756
1160.00 1483.4815 1032.8741 34.5356 3.5456
1170.00 1483.5261 1032.9254 34.5373 3.5157
1180.00 1483.5708 1032.9766 34.5390 3.4857
1190.00 1483.6154 1033.0279 34.5407 3.4558
1200.00 1483.6600 1033.0792 34.5424 3.4258
1210.00 1483.7093 1033.1303 34.5439 3.3971
1220.00 1483.7642 1033.1809 34.5453 3.3698
1230.00 1483.8192 1033.2316 34.5467 3.3424
1240.00 1483.8741 1033.2823 34.5480 3.3151
1250.00 1483.9291 1033.3330 34.5494 3.2878
1260.00 1483.9840 1033.3837 34.5508 3.2605
1270.00 1484.0390 1033.4344 34.5522 3.2332
1280.00 1484.0939 1033.4851 34.5535 3.2059
1290.00 1484.1489 1033.5358 34.5549 3.1786
1300.00 1484.2038 1033.5864 34.5563 3.1513
1310.00 1484.2624 1033.6370 34.5576 3.1249
1320.00 1484.3267 1033.6872 34.5588 3.0999
1330.00 1484.3910 1033.7374 34.5600 3.0749
1340.00 1484.4554 1033.7876 34.5612 3.0499
1350.00 1484.5197 1033.8379 34.5624 3.0249
1360.00 1484.5840 1033.8881 34.5636 2.9999
1370.00 1484.6484 1033.9383 34.5648 2.9749
1380.00 1484.7127 1033.9886 34.5660 2.9500
1390.00 1484.7771 1034.0388 34.5672 2.9250
1400.00 1484.8414 1034.0890 34.5684 2.9000
1410.00 1484.9067 1034.1392 34.5696 2.8752
1420.00 1484.9824 1034.1890 34.5707 2.8530
1430.00 1485.0582 1034.2387 34.5718 2.8307
1440.00 1485.1339 1034.2885 34.5729 2.8085
1450.00 1485.2097 1034.3383 34.5740 2.7862
1460.00 1485.2854 1034.3880 34.5751 2.7639
1470.00 1485.3611 1034.4378 34.5762 2.7417
1480.00 1485.4369 1034.4876 34.5773 2.7194
1490.00 1485.5126 1034.5373 34.5784 2.6972
1500.00 1485.5884 1034.5871 34.5795 2.6749
1510.00 1485.6641 1034.6369 34.5805 2.6526
1520.00 1485.7441 1034.6865 34.5816 2.6314
1530.00 1485.8344 1034.7357 34.5826 2.6125
1540.00 1485.9248 1034.7849 34.5836 2.5936
1550.00 1486.0151 1034.8342 34.5846 2.5748
1560.00 1486.1055 1034.8834 34.5856 2.5559
1570.00 1486.1958 1034.9326 34.5866 2.5370
1580.00 1486.2862 1034.9818 34.5876 2.5182
1590.00 1486.3765 1035.0311 34.5886 2.4993
1600.00 1486.4669 1035.0803 34.5896 2.4805
1610.00 1486.5572 1035.1295 34.5906 2.4616
1620.00 1486.6476 1035.1788 34.5916 2.4427
1630.00 1486.7380 1035.2280 34.5927 2.4239
1640.00 1486.8375 1035.2769 34.5936 2.4071
1650.00 1486.9435 1035.3256 34.5945 2.3918
1660.00 1487.0496 1035.3742 34.5954 2.3765
1670.00 1487.1557 1035.4229 34.5963 2.3612
1680.00 1487.2617 1035.4716 34.5972 2.3460
1690.00 1487.3678 1035.5202 34.5982 2.3307
1700.00 1487.4739 1035.5689 34.5991 2.3154
1710.00 1487.5799 1035.6176 34.6000 2.3001
1720.00 1487.6860 1035.6663 34.6009 2.2848
1730.00 1487.7921 1035.7149 34.6018 2.2696
1740.00 1487.8982 1035.7636 34.6027 2.2543
1750.00 1488.0042 1035.8123 34.6036 2.2390
1760.00 1488.1103 1035.8609 34.6045 2.2237
1770.00 1488.2233 1035.9093 34.6054 2.2100
1780.00 1488.3435 1035.9575 34.6062 2.1979
1790.00 1488.4638 1036.0056 34.6070 2.1858
1800.00 1488.5840 1036.0537 34.6078 2.1737
1810.00 1488.7043 1036.1019 34.6086 2.1616
1820.00 1488.8246 1036.1500 34.6094 2.1495
1830.00 1488.9448 1036.1981 34.6102 2.1374
1840.00 1489.0651 1036.2462 34.6110 2.1253
1850.00 1489.1854 1036.2944 34.6118 2.1132
1860.00 1489.3056 1036.3425 34.6126 2.1011
1870.00 1489.4259 1036.3906 34.6134 2.0890
1880.00 1489.5461 1036.4388 34.6142 2.0769
1890.00 1489.6664 1036.4869 34.6150 2.0648
1900.00 1489.7867 1036.5350 34.6158 2.0527
1910.00 1489.9069 1036.5831 34.6166 2.0406
1920.00 1490.0339 1036.6310 34.6174 2.0299
1930.00 1490.1657 1036.6786 34.6181 2.0204
1940.00 1490.2975 1036.7263 34.6187 2.0108
1950.00 1490.4293 1036.7739 34.6194 2.0012
1960.00 1490.5610 1036.8216 34.6201 1.9916
1970.00 1490.6928 1036.8692 34.6208 1.9821
1980.00 1490.8246 1036.9169 34.6215 1.9725
1990.00 1490.9564 1036.9645 34.6222 1.9629
2000.00 1491.0882 1037.0121 34.6229 1.9533
2010.00 1491.2200 1037.0598 34.6235 1.9437
2020.00 1491.3517 1037.1074 34.6242 1.9342
2030.00 1491.4835 1037.1551 34.6249 1.9246
2040.00 1491.6153 1037.2027 34.6256 1.9150
2050.00 1491.7471 1037.2504 34.6263 1.9054
2060.00 1491.8789 1037.2980 34.6270 1.8959
2070.00 1492.0106 1037.3457 34.6276 1.8863
2080.00 1492.1424 1037.3933 34.6283 1.8767
2090.00 1492.2797 1037.4407 34.6289 1.8683
2100.00 1492.4206 1037.4879 34.6295 1.8606
2110.00 1492.5615 1037.5351 34.6301 1.8530
2120.00 1492.7024 1037.5823 34.6307 1.8454
2130.00 1492.8433 1037.6295 34.6312 1.8377
2140.00 1492.9842 1037.6768 34.6318 1.8301
2150.00 1493.1251 1037.7240 34.6324 1.8225
2160.00 1493.2660 1037.7712 34.6329 1.8148
2170.00 1493.4069 1037.8184 34.6335 1.8072
2180.00 1493.5478 1037.8656 34.6341 1.7996
2190.00 1493.6888 1037.9128 34.6346 1.7919
2200.00 1493.8297 1037.9600 34.6352 1.7843
2210.00 1493.9706 1038.0073 34.6358 1.7766
2220.00 1494.1115 1038.0545 34.6363 1.7690
2230.00 1494.2524 1038.1017 34.6369 1.7614
2240.00 1494.3933 1038.1489 34.6375 1.7537
2250.00 1494.5342 1038.1961 34.6380 1.7461
2260.00 1494.6751 1038.2433 34.6386 1.7385
2270.00 1494.8160 1038.2905 34.6392 1.7308
2280.00 1494.9598 1038.3376 34.6397 1.7238
2290.00 1495.1081 1038.3844 34.6402 1.7176
2300.00 1495.2564 1038.4312 34.6406 1.7115
2310.00 1495.4048 1038.4781 34.6411 1.7054
2320.00 1495.5531 1038.5249 34.6416 1.6993
2330.00 1495.7015 1038.5717 34.6420 1.6932
2340.00 1495.8498 1038.6185 34.6425 1.6870
2350.00 1495.9982 1038.6653 34.6429 1.6809
2360.00 1496.1465 1038.7122 34.6434 1.6748
2370.00 1496.2948 1038.7590 34.6439 1.6687
2380.00 1496.4432 1038.8058 34.6443 1.6626
2390.00 1496.5915 1038.8526 34.6448 1.6564
2400.00 1496.7399 1038.8994 34.6453 1.6503
2410.00 1496.8882 1038.9463 34.6457 1.6442
2420.00 1497.0366 1038.9931 34.6462 1.6381
2430.00 1497.1849 1039.0399 34.6467 1.6320
2440.00 1497.3332 1039.0867 34.6471 1.6258
2450.00 1497.4816 1039.1335 34.6476 1.6197
2460.00 1497.6299 1039.1804 34.6480 1.6136
2470.00 1497.7783 1039.2272 34.6485 1.6075
2480.00 1497.9266 1039.2740 34.6490 1.6014
2490.00 1498.0749 1039.3208 34.6494 1.5952
2500.00 1498.2287 1039.3673 34.6498 1.5902
2510.00 1498.3833 1039.4138 34.6502 1.5853
2520.00 1498.5378 1039.4602 34.6506 1.5803
2530.00 1498.6924 1039.5067 34.6510 1.5754
2540.00 1498.8469 1039.5531 34.6513 1.5705
2550.00 1499.0015 1039.5996 34.6517 1.5656
2560.00 1499.1560 1039.6461 34.6521 1.5607
2570.00 1499.3106 1039.6925 34.6525 1.5558
2580.00 1499.4652 1039.7390 34.6529 1.5508
2590.00 1499.6197 1039.7854 34.6532 1.5459
2600.00 1499.7743 1039.8319 34.6536 1.5410
2610.00 1499.9288 1039.8783 34.6540 1.5361
2620.00 1500.0834 1039.9248 34.6544 1.5312
2630.00 1500.2379 1039.9713 34.6547 1.5263
2640.00 1500.3925 1040.0177 34.6551 1.5214
2650.00 1500.5470 1040.0642 34.6555 1.5164
2660.00 1500.7016 1040.1106 34.6559 1.5115
2670.00 1500.8561 1040.1571 34.6563 1.5066
2680.00 1501.0107 1040.2035 34.6566 1.5017
2690.00 1501.1653 1040.2500 34.6570 1.4968
2700.00 1501.3198 1040.2964 34.6574 1.4919
2710.00 1501.4744 1040.3429 34.6578 1.4870
2720.00 1501.6289 1040.3894 34.6581 1.4820
2730.00 1501.7839 1040.4358 34.6585 1.4772
2740.00 1501.9438 1040.4819 34.6588 1.4733
2750.00 1502.1037 1040.5280 34.6591 1.4693
2760.00 1502.2636 1040.5741 34.6595 1.4654
2770.00 1502.4235 1040.6202 34.6598 1.4615
2780.00 1502.5834 1040.6664 34.6601 1.4575
2790.00 1502.7433 1040.7125 34.6604 1.4536
2800.00 1502.9032 1040.7586 34.6607 1.4496
2810.00 1503.0631 1040.8047 34.6610 1.4457
2820.00 1503.2230 1040.8508 34.6613 1.4418
2830.00 1503.3829 1040.8969 34.6616 1.4378
2840.00 1503.5428 1040.9430 34.6619 1.4339
2850.00 1503.7027 1040.9891 34.6622 1.4300
2860.00 1503.8626 1041.0352 34.6626 1.4260
2870.00 1504.0225 1041.0814 34.6629 1.4221
2880.00 1504.1824 1041.1275 34.6632 1.4181
2890.00 1504.3423 1041.1736 34.6635 1.4142
2900.00 1504.5022 1041.2197 34.6638 1.4103
2910.00 1504.6621 1041.2658 34.6641 1.4063
2920.00 1504.8220 1041.3119 34.6644 1.4024
2930.00 1504.9819 1041.3580 34.6647 1.3985
2940.00 1505.1418 1041.4041 34.6650 1.3945
2950.00 1505.3017 1041.4503 34.6653 1.3906
2960.00 1505.4616 1041.4964 34.6657 1.3866
2970.00 1505.6215 1041.5425 34.6660 1.3827
2980.00 1505.7814 1041.5886 34.6663 1.3788
2990.00 1505.9413 1041.6347 34.6666 1.3748
3000.00 1506.1057 1041.6805 34.6668 1.3717
3010.00 1506.2702 1041.7263 34.6671 1.3685
3020.00 1506.4346 1041.7721 34.6674 1.3653
3030.00 1506.5991 1041.8178 34.6676 1.3622
3040.00 1506.7636 1041.8636 34.6679 1.3590
3050.00 1506.9281 1041.9094 34.6681 1.3559
3060.00 1507.0926 1041.9552 34.6684 1.3527
3070.00 1507.2571 1042.0010 34.6687 1.3496
3080.00 1507.4216 1042.0467 34.6689 1.3464
3090.00 1507.5861 1042.0925 34.6692 1.3433
3100.00 1507.7506 1042.1383 34.6694 1.3401
3110.00 1507.9150 1042.1841 34.6697 1.3369
3120.00 1508.0795 1042.2299 34.6699 1.3338
3130.00 1508.2440 1042.2757 34.6702 1.3306
3140.00 1508.4085 1042.3214 34.6705 1.3275
3150.00 1508.5730 1042.3672 34.6707 1.3243
3160.00 1508.7375 1042.4130 34.6710 1.3212
3170.00 1508.9020 1042.4588 34.6712 1.3180
3180.00 1509.0665 1042.5046 34.6715 1.3148
3190.00 1509.2309 1042.5503 34.6718 1.3117
3200.00 1509.3954 1042.5961 34.6720 1.3085
3210.00 1509.5599 1042.6419 34.6723 1.3054
3220.00 1509.7244 1042.6877 34.6725 1.3022
3230.00 1509.8889 1042.7335 34.6728 1.2991
3240.00 1510.0534 1042.7793 34.6731 1.2959
3250.00 1510.2179 1042.8250 34.6733 1.2928
3260.00 1510.3824 1042.8708 34.6736 1.2896
3270.00 1510.5469 1042.9166 34.6738 1.2864
3280.00 1510.7136 1042.9622 34.6741 1.2836
3290.00 1510.8820 1043.0077 34.6743 1.2811
3300.00 1511.0504 1043.0531 34.6745 1.2785
3310.00 1511.2188 1043.0986 34.6747 1.2760
3320.00 1511.3873 1043.1440 34.6749 1.2735
3330.00 1511.5557 1043.1895 34.6752 1.2709
3340.00 1511.7241 1043.2350 34.6754 1.2684
3350.00 1511.8925 1043.2804 34.6756 1.2658
3360.00 1512.0609 1043.3259 34.6758 1.2633
3370.00 1512.2293 1043.3713 34.6760 1.2607
3380.00 1512.3978 1043.4168 34.6763 1.2582
3390.00 1512.5662 1043.4623 34.6765 1.2556
3400.00 1512.7346 1043.5077 34.6767 1.2531
3410.00 1512.9030 1043.5532 34.6769 1.2506
3420.00 1513.0714 1043.5986 34.6771 1.2480
3430.00 1513.2398 1043.6441 34.6774 1.2455
3440.00 1513.4082 1043.6896 34.6776 1.2429
3450.00 1513.5767 1043.7350 34.6778 1.2404
3460.00 1513.7451 1043.7805 34.6780 1.2378
3470.00 1513.9135 1043.8259 34.6782 1.2353
3480.00 1514.0819 1043.8714 34.6785 1.2327
3490.00 1514.2503 1043.9169 34.6787 1.2302
3500.00 1514.4187 1043.9623 34.6789 1.2276
3510.00 1514.5871 1044.0078 34.6791 1.2251
3520.00 1514.7556 1044.0532 34.6793 1.2226
3530.00 1514.9240 1044.0987 34.6796 1.2200
3540.00 1515.0924 1044.1442 34.6798 1.2175
3550.00 1515.2608 1044.1896 34.6800 1.2149
3560.00 1515.4292 1044.2351 34.6802 1.2124
3570.00 1515.5976 1044.2805 34.6804 1.2098
3580.00 1515.7661 1044.3260 34.6807 1.2073
3590.00 1515.9378 1044.3712 34.6808 1.2052
3600.00 1516.1099 1044.4163 34.6810 1.2032
3610.00 1516.2821 1044.4614 34.6812 1.2013
3620.00 1516.4543 1044.5065 34.6814 1.1993
3630.00 1516.6265 1044.5516 34.6816 1.1973
3640.00 1516.7987 1044.5968 34.6818 1.1953
3650.00 1516.9708 1044.6419 34.6819 1.1933
3660.00 1517.1430 1044.6870 34.6821 1.1913
3670.00 1517.3152 1044.7321 34.6823 1.1893
3680.00 1517.4874 1044.7772 34.6825 1.1874
3690.00 1517.6596 1044.8224 34.6827 1.1854
3700.00 1517.8317 1044.8675 34.6829 1.1834
3710.00 1518.0039 1044.9126 34.6830 1.1814
3720.00 1518.1761 1044.9577 34.6832 1.1794
3730.00 1518.3483 1045.0028 34.6834 1.1774
3740.00 1518.5205 1045.0480 34.6836 1.1754
3750.00 1518.6926 1045.0931 34.6838 1.1735
3760.00 1518.8648 1045.1382 34.6840 1.1715
3770.00 1519.0370 1045.1833 34.6842 1.1695
3780.00 1519.2092 1045.2285 34.6843 1.1675
3790.00 1519.3813 1045.2736 34.6845 1.1655
3800.00 1519.5535 1045.3187 34.6847 1.1635
3810.00 1519.7257 1045.3638 34.6849 1.1616
3820.00 1519.8979 1045.4089 34.6851 1.1596
3830.00 1520.0701 1045.4541 34.6853 1.1576
3840.00 1520.2422 1045.4992 34.6854 1.1556
3850.00 1520.4144 1045.5443 34.6856 1.1536
3860.00 1520.5866 1045.5894 34.6858 1.1516
3870.00 1520.7588 1045.6345 34.6860 1.1496
3880.00 1520.9310 1045.6797 34.6862 1.1477
3890.00 1521.1031 1045.7248 34.6864 1.1457
3900.00 1521.2753 1045.7699 34.6865 1.1437
3910.00 1521.4475 1045.8150 34.6867 1.1417
3920.00 1521.6223 1045.8599 34.6869 1.1400
3930.00 1521.7974 1045.9047 34.6870 1.1384
3940.00 1521.9726 1045.9495 34.6872 1.1368
3950.00 1522.1477 1045.9942 34.6873 1.1352
3960.00 1522.3228 1046.0390 34.6875 1.1336
3970.00 1522.4980 1046.0838 34.6876 1.1320
3980.00 1522.6731 1046.1286 34.6878 1.1304
3990.00 1522.8483 1046.1734 34.6880 1.1287
4000.00 1523.0234 1046.2182 34.6881 1.1271
4010.00 1523.1986 1046.2630 34.6883 1.1255
4020.00 1523.3737 1046.3078 34.6884 1.1239
4030.00 1523.5488 1046.3526 34.6886 1.1223
4040.00 1523.7240 1046.3974 34.6887 1.1207
4050.00 1523.8991 1046.4422 34.6889 1.1190
4060.00 1524.0743 1046.4870 34.6890 1.1174
4070.00 1524.2494 1046.5318 34.6892 1.1158
4080.00 1524.4246 1046.5766 34.6893 1.1142
4090.00 1524.5997 1046.6214 34.6895 1.1126
4100.00 1524.7749 1046.6662 34.6896 1.1110
4110.00 1524.9500 1046.7110 34.6898 1.1094
4120.00 1525.1251 1046.7558 34.6900 1.1077
4130.00 1525.3003 1046.8005 34.6901 1.1061
4140.00 1525.4754 1046.8453 34.6903 1.1045
4150.00 1525.6506 1046.8901 34.6904 1.1029
4160.00 1525.8257 1046.9349 34.6906 1.1013
4170.00 1526.0009 1046.9797 34.6907 1.0997
4180.00 1526.1760 1047.0245 34.6909 1.0981
4190.00 1526.3511 1047.0693 34.6910 1.0964
4200.00 1526.5263 1047.1141 34.6912 1.0948
4210.00 1526.7014 1047.1589 34.6913 1.0932
4220.00 1526.8766 1047.2037 34.6915 1.0916
4230.00 1527.0517 1047.2485 34.6916 1.0900
4240.00 1527.2269 1047.2933 34.6918 1.0884
4250.00 1527.4020 1047.3381 34.6920 1.0867
4260.00 1527.5771 1047.3829 34.6921 1.0851
4270.00 1527.7524 1047.4276 34.6923 1.0834
4280.00 1527.9276 1047.4722 34.6924 1.0815
4290.00 1528.1029 1047.5168 34.6926 1.0796
4300.00 1528.2781 1047.5614 34.6928 1.0777
4310.00 1528.4534 1047.6060 34.6929 1.0758
4320.00 1528.6287 1047.6506 34.6931 1.0739
4330.00 1528.8039 1047.6952 34.6933 1.0720
4340.00 1528.9792 1047.7398 34.6934 1.0701
4350.00 1529.1544 1047.7844 34.6936 1.0682
4360.00 1529.3297 1047.8289 34.6938 1.0663
4370.00 1529.5050 1047.8735 34.6939 1.0644
4380.00 1529.6802 1047.9181 34.6941 1.0625
4390.00 1529.8555 1047.9627 34.6943 1.0606
4400.00 1530.0307 1048.0073 34.6944 1.0587
4410.00 1530.2060 1048.0519 34.6946 1.0568
4420.00 1530.3813 1048.0965 34.6947 1.0549
4430.00 1530.5565 1048.1411 34.6949 1.0530
4440.00 1530.7318 1048.1857 34.6951 1.0511
4450.00 1530.9070 1048.2303 34.6952 1.0492
4460.00 1531.0823 1048.2749 34.6954 1.0473
4470.00 1531.2576 1048.3195 34.6956 1.0454
4480.00 1531.4328 1048.3641 34.6957 1.0435
4490.00 1531.6081 1048.4087 34.6959 1.0416
4500.00 1531.7834 1048.4533 34.6961 1.0397
4510.00 1531.9586 1048.4979 34.6962 1.0378
4520.00 1532.1339 1048.5425 34.6964 1.0359
4530.00 1532.3091 1048.5871 34.6966 1.0340
4540.00 1532.4844 1048.6317 34.6967 1.0321
4550.00 1532.6597 1048.6763 34.6969 1.0302
4560.00 1532.8349 1048.7209 34.6971 1.0283
4570.00 1533.0102 1048.7655 34.6972 1.0264
4580.00 1533.1854 1048.8101 34.6974 1.0245
4590.00 1533.3607 1048.8547 34.6976 1.0226
4600.00 1533.5360 1048.8993 34.6977 1.0207
4610.00 1533.7112 1048.9439 34.6979 1.0188
4620.00 1533.8865 1048.9885 34.6980 1.0169
4630.00 1534.0617 1049.0331 34.6982 1.0150
4640.00 1534.2370 1049.0777 34.6984 1.0131
4650.00 1534.4216 1049.1216 34.6984 1.0131
4660.00 1534.6065 1049.1654 34.6984 1.0131
4670.00 1534.7914 1049.2092 34.6984 1.0131
4680.00 1534.9763 1049.2531 34.6984 1.0131
4690.00 1535.1612 1049.2969 34.6984 1.0131
4700.00 1535.3461 1049.3408 34.6984 1.0131
4710.00 1535.5310 1049.3846 34.6984 1.0131
4720.00 1535.7158 1049.4284 34.6984 1.0131
4730.00 1535.9007 1049.4723 34.6984 1.0131
4740.00 1536.0856 1049.5161 34.6984 1.0131
