# Averages over distance (i) for each depth (k):
# Depth(m) Speed(m/s) Density(kg/m^3) Salt PSU Theta(degC)
0.00 1531.5055 1024.1712 35.5303 23.5746
10.00 1531.6019 1024.2252 35.5321 23.5440
20.00 1531.5252 1024.3024 35.5374 23.4424
30.00 1531.1260 1024.4201 35.5461 23.2111
40.00 1530.5249 1024.5590 35.5536 22.9021
50.00 1529.8850 1024.6988 35.5588 22.5816
60.00 1529.2884 1024.8310 35.5626 22.2815
70.00 1528.7348 1024.9564 35.5656 22.0009
80.00 1528.1873 1025.0799 35.5686 21.7249
90.00 1527.6256 1025.2041 35.5720 21.4455
100.00 1527.0510 1025.3288 35.5758 21.1633
110.00 1526.4764 1025.4526 35.5800 20.8831
120.00 1525.9238 1025.5727 35.5838 20.6135
130.00 1525.4084 1025.6873 35.5866 20.3599
140.00 1524.9318 1025.7960 35.5882 20.1227
150.00 1524.4972 1025.8978 35.5877 19.9036
160.00 1524.0724 1025.9968 35.5857 19.6899
170.00 1523.6555 1026.0935 35.5826 19.4804
180.00 1523.2201 1026.1886 35.5768 19.2676
190.00 1522.7789 1026.2831 35.5701 19.0536
200.00 1522.2965 1026.3777 35.5604 18.8283
210.00 1521.7769 1026.4723 35.5480 18.5928
220.00 1521.2573 1026.5670 35.5355 18.3574
230.00 1520.6369 1026.6629 35.5169 18.0940
240.00 1519.9789 1026.7592 35.4960 17.8202
250.00 1519.3210 1026.8555 35.4751 17.5464
260.00 1518.6124 1026.9523 35.4516 17.2592
270.00 1517.7544 1027.0509 35.4205 16.9323
280.00 1516.8963 1027.1494 35.3893 16.6054
290.00 1516.0382 1027.2480 35.3582 16.2785
300.00 1515.1788 1027.3466 35.3270 15.9513
310.00 1514.1323 1027.4441 35.2879 15.5824
320.00 1513.0857 1027.5416 35.2489 15.2135
330.00 1512.0391 1027.6391 35.2099 14.8445
340.00 1510.9925 1027.7366 35.1708 14.4756
350.00 1509.9459 1027.8341 35.1318 14.1066
360.00 1508.8634 1027.9237 35.0924 13.7453
370.00 1507.7782 1028.0128 35.0529 13.3844
380.00 1506.6931 1028.1018 35.0134 13.0236
390.00 1505.6079 1028.1909 34.9740 12.6628
400.00 1504.5227 1028.2799 34.9345 12.3019
410.00 1503.4387 1028.3689 34.8951 11.9415
420.00 1502.5224 1028.4449 34.8631 11.6452
430.00 1501.6060 1028.5209 34.8310 11.3489
440.00 1500.6897 1028.5969 34.7990 11.0526
450.00 1499.7733 1028.6729 34.7670 10.7563
460.00 1498.8569 1028.7489 34.7349 10.4599
470.00 1497.9406 1028.8249 34.7029 10.1636
480.00 1497.0940 1028.8981 34.6735 9.8887
490.00 1496.4534 1028.9629 34.6518 9.6770
500.00 1495.8128 1029.0277 34.6302 9.4654
510.00 1495.1721 1029.0925 34.6086 9.2537
520.00 1494.5315 1029.1573 34.5869 9.0421
530.00 1493.8909 1029.2222 34.5653 8.8304
540.00 1493.2503 1029.2870 34.5436 8.6188
550.00 1492.6097 1029.3518 34.5220 8.4071
560.00 1492.1490 1029.4119 34.5068 8.2457
570.00 1491.7551 1029.4702 34.4941 8.1030
580.00 1491.3613 1029.5285 34.4813 7.9603
590.00 1490.9675 1029.5868 34.4686 7.8175
600.00 1490.5736 1029.6451 34.4558 7.6748
610.00 1490.1798 1029.7034 34.4431 7.5321
620.00 1489.7859 1029.7617 34.4303 7.3893
630.00 1489.3921 1029.8201 34.4175 7.2466
640.00 1489.0841 1029.8769 34.4081 7.1266
650.00 1488.8534 1029.9325 34.4015 7.0270
660.00 1488.6226 1029.9881 34.3950 6.9275
670.00 1488.3919 1030.0437 34.3885 6.8279
680.00 1488.1612 1030.0993 34.3819 6.7283
690.00 1487.9304 1030.1549 34.3754 6.6288
700.00 1487.6997 1030.2105 34.3689 6.5292
710.00 1487.4689 1030.2661 34.3624 6.4296
720.00 1487.2382 1030.3216 34.3558 6.3300
730.00 1487.0746 1030.3769 34.3525 6.2477
740.00 1486.9321 1030.4320 34.3501 6.1707
750.00 1486.7897 1030.4871 34.3478 6.0938
760.00 1486.6473 1030.5421 34.3454 6.0169
770.00 1486.5048 1030.5972 34.3431 5.9399
780.00 1486.3624 1030.6523 34.3407 5.8630
790.00 1486.2200 1030.7074 34.3384 5.7860
800.00 1486.0776 1030.7625 34.3360 5.7091
810.00 1485.9351 1030.8176 34.3337 5.6322
820.00 1485.8175 1030.8730 34.3330 5.5615
830.00 1485.7199 1030.9285 34.3335 5.4959
840.00 1485.6223 1030.9840 34.3341 5.4302
850.00 1485.5247 1031.0396 34.3347 5.3646
860.00 1485.4270 1031.0951 34.3352 5.2990
870.00 1485.3294 1031.1507 34.3358 5.2333
880.00 1485.2318 1031.2062 34.3364 5.1677
890.00 1485.1342 1031.2617 34.3370 5.1021
900.00 1485.0366 1031.3173 34.3375 5.0365
910.00 1484.9398 1031.3728 34.3382 4.9710
920.00 1484.8725 1031.4287 34.3407 4.9130
930.00 1484.8052 1031.4846 34.3433 4.8550
940.00 1484.7380 1031.5405 34.3458 4.7970
950.00 1484.6707 1031.5963 34.3484 4.7390
960.00 1484.6034 1031.6522 34.3510 4.6810
970.00 1484.5361 1031.7081 34.3535 4.6230
980.00 1484.4688 1031.7640 34.3561 4.5650
990.00 1484.4015 1031.8198 34.3586 4.5070
1000.00 1484.3342 1031.8757 34.3612 4.4490
1010.00 1484.2753 1031.9315 34.3641 4.3931
1020.00 1484.2373 1031.9872 34.3678 4.3424
1030.00 1484.1994 1032.0429 34.3715 4.2917
1040.00 1484.1614 1032.0986 34.3752 4.2411
1050.00 1484.1235 1032.1543 34.3789 4.1904
1060.00 1484.0855 1032.2099 34.3826 4.1398
1070.00 1484.0476 1032.2656 34.3863 4.0891
1080.00 1484.0096 1032.3213 34.3900 4.0384
1090.00 1483.9716 1032.3770 34.3937 3.9878
1100.00 1483.9337 1032.4326 34.3974 3.9371
1110.00 1483.9078 1032.4880 34.4013 3.8894
1120.00 1483.8992 1032.5431 34.4054 3.8461
1130.00 1483.8906 1032.5981 34.4096 3.8027
1140.00 1483.8821 1032.6531 34.4138 3.7593
1150.00 1483.8735 1032.7082 34.4180 3.7160
1160.00 1483.8649 1032.7632 34.4222 3.6726
1170.00 1483.8564 1032.8182 34.4264 3.6292
1180.00 1483.8478 1032.8733 34.4306 3.5859
1190.00 1483.8393 1032.9283 34.4348 3.5425
1200.00 1483.8307 1032.9833 34.4390 3.4991
1210.00 1483.8356 1033.0379 34.4432 3.4590
1220.00 1483.8570 1033.0920 34.4474 3.4230
1230.00 1483.8785 1033.1460 34.4516 3.3870
1240.00 1483.9000 1033.2001 34.4558 3.3510
1250.00 1483.9215 1033.2541 34.4600 3.3150
1260.00 1483.9430 1033.3082 34.4642 3.2790
1270.00 1483.9645 1033.3622 34.4684 3.2429
1280.00 1483.9860 1033.4163 34.4726 3.2069
1290.00 1484.0075 1033.4703 34.4768 3.1709
1300.00 1484.0290 1033.5244 34.4810 3.1349
1310.00 1484.0625 1033.5779 34.4851 3.1018
1320.00 1484.1156 1033.6307 34.4889 3.0734
1330.00 1484.1687 1033.6834 34.4927 3.0450
1340.00 1484.2218 1033.7362 34.4965 3.0166
1350.00 1484.2749 1033.7889 34.5003 2.9883
1360.00 1484.3280 1033.8417 34.5042 2.9599
1370.00 1484.3811 1033.8944 34.5080 2.9315
1380.00 1484.4343 1033.9472 34.5118 2.9031
1390.00 1484.4874 1033.9999 34.5156 2.8747
1400.00 1484.5405 1034.0527 34.5194 2.8464
1410.00 1484.5962 1034.1053 34.5232 2.8186
1420.00 1484.6800 1034.1566 34.5263 2.7976
1430.00 1484.7637 1034.2078 34.5294 2.7765
1440.00 1484.8475 1034.2591 34.5326 2.7555
1450.00 1484.9313 1034.3103 34.5357 2.7344
1460.00 1485.0151 1034.3616 34.5388 2.7134
1470.00 1485.0989 1034.4129 34.5420 2.6924
1480.00 1485.1826 1034.4641 34.5451 2.6713
1490.00 1485.2664 1034.5154 34.5482 2.6503
1500.00 1485.3502 1034.5666 34.5514 2.6292
1510.00 1485.4340 1034.6179 34.5545 2.6082
1520.00 1485.5250 1034.6687 34.5574 2.5889
1530.00 1485.6337 1034.7186 34.5598 2.5738
1540.00 1485.7423 1034.7684 34.5621 2.5587
1550.00 1485.8510 1034.8183 34.5645 2.5436
1560.00 1485.9597 1034.8681 34.5668 2.5285
1570.00 1486.0684 1034.9180 34.5692 2.5134
1580.00 1486.1771 1034.9678 34.5715 2.4982
1590.00 1486.2858 1035.0177 34.5739 2.4831
1600.00 1486.3944 1035.0675 34.5763 2.4680
1610.00 1486.5031 1035.1174 34.5786 2.4529
1620.00 1486.6118 1035.1672 34.5810 2.4378
1630.00 1486.7205 1035.2171 34.5833 2.4227
1640.00 1486.8391 1035.2663 34.5853 2.4099
1650.00 1486.9648 1035.3150 34.5870 2.3989
1660.00 1487.0905 1035.3638 34.5886 2.3878
1670.00 1487.2162 1035.4126 34.5903 2.3767
1680.00 1487.3419 1035.4613 34.5920 2.3656
1690.00 1487.4676 1035.5101 34.5936 2.3545
1700.00 1487.5932 1035.5588 34.5953 2.3434
1710.00 1487.7189 1035.6076 34.5970 2.3323
1720.00 1487.8446 1035.6563 34.5986 2.3212
1730.00 1487.9703 1035.7051 34.6003 2.3102
1740.00 1488.0960 1035.7538 34.6020 2.2991
1750.00 1488.2217 1035.8026 34.6037 2.2880
1760.00 1488.3474 1035.8514 34.6053 2.2769
1770.00 1488.4781 1035.8997 34.6067 2.2670
1780.00 1488.6141 1035.9477 34.6079 2.2583
1790.00 1488.7500 1035.9957 34.6091 2.2496
1800.00 1488.8860 1036.0437 34.6102 2.2409
1810.00 1489.0220 1036.0916 34.6114 2.2322
1820.00 1489.1579 1036.1396 34.6125 2.2235
1830.00 1489.2939 1036.1876 34.6137 2.2148
1840.00 1489.4299 1036.2356 34.6148 2.2061
1850.00 1489.5658 1036.2836 34.6160 2.1974
1860.00 1489.7018 1036.3315 34.6171 2.1887
1870.00 1489.8378 1036.3795 34.6183 2.1800
1880.00 1489.9737 1036.4275 34.6194 2.1713
1890.00 1490.1097 1036.4755 34.6206 2.1626
1900.00 1490.2457 1036.5235 34.6218 2.1539
1910.00 1490.3816 1036.5714 34.6229 2.1452
1920.00 1490.5213 1036.6191 34.6239 2.1373
1930.00 1490.6635 1036.6665 34.6247 2.1300
1940.00 1490.8058 1036.7140 34.6255 2.1227
1950.00 1490.9481 1036.7614 34.6263 2.1154
1960.00 1491.0903 1036.8089 34.6271 2.1081
1970.00 1491.2326 1036.8563 34.6279 2.1008
1980.00 1491.3749 1036.9038 34.6287 2.0935
1990.00 1491.5171 1036.9512 34.6295 2.0862
2000.00 1491.6594 1036.9987 34.6303 2.0789
2010.00 1491.8017 1037.0461 34.6311 2.0716
2020.00 1491.9440 1037.0936 34.6319 2.0643
2030.00 1492.0862 1037.1410 34.6327 2.0570
2040.00 1492.2285 1037.1884 34.6335 2.0497
2050.00 1492.3708 1037.2359 34.6344 2.0424
2060.00 1492.5130 1037.2833 34.6352 2.0351
2070.00 1492.6553 1037.3308 34.6360 2.0278
2080.00 1492.7976 1037.3782 34.6368 2.0205
2090.00 1492.9423 1037.4254 34.6375 2.0137
2100.00 1493.0888 1037.4725 34.6381 2.0072
2110.00 1493.2352 1037.5196 34.6387 2.0008
2120.00 1493.3817 1037.5667 34.6393 1.9943
2130.00 1493.5281 1037.6137 34.6399 1.9879
2140.00 1493.6745 1037.6608 34.6404 1.9814
2150.00 1493.8210 1037.7079 34.6410 1.9750
2160.00 1493.9674 1037.7550 34.6416 1.9685
2170.00 1494.1139 1037.8020 34.6422 1.9621
2180.00 1494.2603 1037.8491 34.6428 1.9556
2190.00 1494.4068 1037.8962 34.6434 1.9492
2200.00 1494.5532 1037.9433 34.6440 1.9427
2210.00 1494.6997 1037.9903 34.6446 1.9363
2220.00 1494.8461 1038.0374 34.6452 1.9298
2230.00 1494.9926 1038.0845 34.6458 1.9234
2240.00 1495.1390 1038.1316 34.6464 1.9169
2250.00 1495.2854 1038.1786 34.6470 1.9105
2260.00 1495.4319 1038.2257 34.6476 1.9040
2270.00 1495.5783 1038.2728 34.6482 1.8976
2280.00 1495.7260 1038.3198 34.6488 1.8913
2290.00 1495.8756 1038.3666 34.6493 1.8855
2300.00 1496.0252 1038.4134 34.6498 1.8796
2310.00 1496.1749 1038.4602 34.6503 1.8737
2320.00 1496.3245 1038.5070 34.6508 1.8678
2330.00 1496.4741 1038.5538 34.6513 1.8619
2340.00 1496.6237 1038.6006 34.6518 1.8560
2350.00 1496.7734 1038.6474 34.6523 1.8501
2360.00 1496.9230 1038.6942 34.6528 1.8443
2370.00 1497.0726 1038.7410 34.6533 1.8384
2380.00 1497.2222 1038.7878 34.6538 1.8325
2390.00 1497.3719 1038.8346 34.6542 1.8266
2400.00 1497.5215 1038.8814 34.6547 1.8207
2410.00 1497.6711 1038.9282 34.6552 1.8148
2420.00 1497.8207 1038.9750 34.6557 1.8089
2430.00 1497.9703 1039.0218 34.6562 1.8031
2440.00 1498.1200 1039.0686 34.6567 1.7972
2450.00 1498.2696 1039.1154 34.6572 1.7913
2460.00 1498.4192 1039.1622 34.6577 1.7854
2470.00 1498.5688 1039.2090 34.6582 1.7795
2480.00 1498.7185 1039.2558 34.6587 1.7736
2490.00 1498.8681 1039.3027 34.6592 1.7677
2500.00 1499.0206 1039.3493 34.6597 1.7623
2510.00 1499.1735 1039.3958 34.6601 1.7570
2520.00 1499.3264 1039.4424 34.6606 1.7516
2530.00 1499.4793 1039.4890 34.6610 1.7463
2540.00 1499.6322 1039.5355 34.6615 1.7410
2550.00 1499.7851 1039.5821 34.6620 1.7356
2560.00 1499.9379 1039.6287 34.6624 1.7303
2570.00 1500.0908 1039.6752 34.6629 1.7249
2580.00 1500.2437 1039.7218 34.6633 1.7196
2590.00 1500.3966 1039.7684 34.6638 1.7142
2600.00 1500.5495 1039.8150 34.6642 1.7089
2610.00 1500.7024 1039.8615 34.6647 1.7035
2620.00 1500.8553 1039.9081 34.6652 1.6982
2630.00 1501.0082 1039.9547 34.6656 1.6928
2640.00 1501.1611 1040.0012 34.6661 1.6875
2650.00 1501.3140 1040.0478 34.6665 1.6821
2660.00 1501.4669 1040.0944 34.6670 1.6768
2670.00 1501.6198 1040.1409 34.6674 1.6715
2680.00 1501.7727 1040.1875 34.6679 1.6661
2690.00 1501.9256 1040.2341 34.6684 1.6608
2700.00 1502.0785 1040.2807 34.6688 1.6554
2710.00 1502.2314 1040.3272 34.6693 1.6501
2720.00 1502.3842 1040.3738 34.6697 1.6447
2730.00 1502.5374 1040.4203 34.6702 1.6394
2740.00 1502.6934 1040.4667 34.6706 1.6346
2750.00 1502.8495 1040.5130 34.6711 1.6297
2760.00 1503.0056 1040.5594 34.6715 1.6248
2770.00 1503.1616 1040.6057 34.6720 1.6200
2780.00 1503.3177 1040.6521 34.6724 1.6151
2790.00 1503.4737 1040.6984 34.6729 1.6102
2800.00 1503.6298 1040.7448 34.6733 1.6054
2810.00 1503.7859 1040.7911 34.6738 1.6005
2820.00 1503.9419 1040.8375 34.6742 1.5957
2830.00 1504.0980 1040.8838 34.6747 1.5908
2840.00 1504.2541 1040.9302 34.6751 1.5859
2850.00 1504.4101 1040.9765 34.6756 1.5811
2860.00 1504.5662 1041.0228 34.6760 1.5762
2870.00 1504.7222 1041.0692 34.6765 1.5713
2880.00 1504.8783 1041.1155 34.6769 1.5665
2890.00 1505.0344 1041.1619 34.6774 1.5616
2900.00 1505.1904 1041.2082 34.6778 1.5568
2910.00 1505.3465 1041.2546 34.6783 1.5519
2920.00 1505.5025 1041.3009 34.6787 1.5470
2930.00 1505.6586 1041.3473 34.6792 1.5422
2940.00 1505.8147 1041.3936 34.6796 1.5373
2950.00 1505.9707 1041.4400 34.6801 1.5324
2960.00 1506.1268 1041.4863 34.6805 1.5276
2970.00 1506.2828 1041.5327 34.6810 1.5227
2980.00 1506.4389 1041.5790 34.6814 1.5179
2990.00 1506.5950 1041.6254 34.6819 1.5130
3000.00 1506.7523 1041.6715 34.6823 1.5082
3010.00 1506.9097 1041.7177 34.6827 1.5034
3020.00 1507.0671 1041.7639 34.6832 1.4986
3030.00 1507.2246 1041.8100 34.6836 1.4938
3040.00 1507.3820 1041.8562 34.6841 1.4890
3050.00 1507.5394 1041.9024 34.6845 1.4841
3060.00 1507.6968 1041.9485 34.6849 1.4793
3070.00 1507.8542 1041.9947 34.6854 1.4745
3080.00 1508.0116 1042.0409 34.6858 1.4697
3090.00 1508.1690 1042.0870 34.6863 1.4649
3100.00 1508.3264 1042.1332 34.6867 1.4601
3110.00 1508.4838 1042.1794 34.6872 1.4553
3120.00 1508.6412 1042.2255 34.6876 1.4505
3130.00 1508.7986 1042.2717 34.6880 1.4457
3140.00 1508.9560 1042.3179 34.6885 1.4409
3150.00 1509.1134 1042.3641 34.6889 1.4361
3160.00 1509.2708 1042.4102 34.6894 1.4313
3170.00 1509.4282 1042.4564 34.6898 1.4264
3180.00 1509.5856 1042.5026 34.6902 1.4216
3190.00 1509.7430 1042.5487 34.6907 1.4168
3200.00 1509.9004 1042.5949 34.6911 1.4120
3210.00 1510.0578 1042.6411 34.6916 1.4072
3220.00 1510.2152 1042.6872 34.6920 1.4024
3230.00 1510.3727 1042.7334 34.6925 1.3976
3240.00 1510.5301 1042.7796 34.6929 1.3928
3250.00 1510.6875 1042.8257 34.6933 1.3880
3260.00 1510.8449 1042.8719 34.6938 1.3832
3270.00 1511.0023 1042.9181 34.6942 1.3784
3280.00 1511.1590 1042.9642 34.6946 1.3733
3290.00 1511.3152 1043.0102 34.6950 1.3679
3300.00 1511.4715 1043.0562 34.6954 1.3626
3310.00 1511.6277 1043.1023 34.6958 1.3573
3320.00 1511.7839 1043.1483 34.6962 1.3520
3330.00 1511.9402 1043.1944 34.6966 1.3466
3340.00 1512.0964 1043.2404 34.6970 1.3413
3350.00 1512.2526 1043.2864 34.6974 1.3360
3360.00 1512.4089 1043.3325 34.6978 1.3307
3370.00 1512.5651 1043.3785 34.6982 1.3254
3380.00 1512.7213 1043.4246 34.6986 1.3200
3390.00 1512.8775 1043.4706 34.6990 1.3147
3400.00 1513.0338 1043.5166 34.6994 1.3094
3410.00 1513.1900 1043.5627 34.6997 1.3041
3420.00 1513.3462 1043.6087 34.7001 1.2988
3430.00 1513.5025 1043.6548 34.7005 1.2934
3440.00 1513.6587 1043.7008 34.7009 1.2881
3450.00 1513.8149 1043.7468 34.7013 1.2828
3460.00 1513.9712 1043.7929 34.7017 1.2775
3470.00 1514.1274 1043.8389 34.7021 1.2721
3480.00 1514.2836 1043.8849 34.7025 1.2668
3490.00 1514.4398 1043.9310 34.7029 1.2615
3500.00 1514.5961 1043.9770 34.7033 1.2562
3510.00 1514.7523 1044.0231 34.7037 1.2509
3520.00 1514.9085 1044.0691 34.7041 1.2455
3530.00 1515.0648 1044.1151 34.7045 1.2402
3540.00 1515.2210 1044.1612 34.7048 1.2349
3550.00 1515.3772 1044.2072 34.7052 1.2296
3560.00 1515.5335 1044.2533 34.7056 1.2242
3570.00 1515.6897 1044.2993 34.7060 1.2189
3580.00 1515.8459 1044.3453 34.7064 1.2136
3590.00 1516.0010 1044.3912 34.7067 1.2078
3600.00 1516.1559 1044.4371 34.7070 1.2019
3610.00 1516.3109 1044.4829 34.7072 1.1961
3620.00 1516.4658 1044.5288 34.7075 1.1902
3630.00 1516.6207 1044.5747 34.7078 1.1844
3640.00 1516.7756 1044.6205 34.7080 1.1785
3650.00 1516.9306 1044.6664 34.7083 1.1726
3660.00 1517.0855 1044.7123 34.7086 1.1668
3670.00 1517.2404 1044.7581 34.7089 1.1609
3680.00 1517.3954 1044.8040 34.7091 1.1551
3690.00 1517.5503 1044.8498 34.7094 1.1492
3700.00 1517.7052 1044.8957 34.7097 1.1433
3710.00 1517.8601 1044.9416 34.7099 1.1375
3720.00 1518.0151 1044.9874 34.7102 1.1316
3730.00 1518.1700 1045.0333 34.7105 1.1258
3740.00 1518.3249 1045.0791 34.7107 1.1199
3750.00 1518.4798 1045.1250 34.7110 1.1140
3760.00 1518.6348 1045.1709 34.7113 1.1082
3770.00 1518.7897 1045.2167 34.7115 1.1023
3780.00 1518.9446 1045.2626 34.7118 1.0965
3790.00 1519.0995 1045.3085 34.7121 1.0906
3800.00 1519.2545 1045.3543 34.7123 1.0847
3810.00 1519.4094 1045.4002 34.7126 1.0789
3820.00 1519.5643 1045.4460 34.7129 1.0730
3830.00 1519.7192 1045.4919 34.7132 1.0672
3840.00 1519.8742 1045.5378 34.7134 1.0613
3850.00 1520.0291 1045.5836 34.7137 1.0554
3860.00 1520.1840 1045.6295 34.7140 1.0496
3870.00 1520.3390 1045.6753 34.7142 1.0437
3880.00 1520.4939 1045.7212 34.7145 1.0378
3890.00 1520.6488 1045.7671 34.7148 1.0320
3900.00 1520.8037 1045.8129 34.7150 1.0261
3910.00 1520.9587 1045.8588 34.7153 1.0203
3920.00 1521.1157 1045.9043 34.7154 1.0147
3930.00 1521.2731 1045.9499 34.7155 1.0091
3940.00 1521.4305 1045.9954 34.7156 1.0035
3950.00 1521.5878 1046.0409 34.7157 0.9979
3960.00 1521.7452 1046.0864 34.7158 0.9924
3970.00 1521.9026 1046.1319 34.7159 0.9868
3980.00 1522.0600 1046.1774 34.7160 0.9812
3990.00 1522.2173 1046.2229 34.7162 0.9756
4000.00 1522.3747 1046.2684 34.7163 0.9701
4010.00 1522.5321 1046.3139 34.7164 0.9645
4020.00 1522.6895 1046.3594 34.7165 0.9589
4030.00 1522.8468 1046.4049 34.7166 0.9534
4040.00 1523.0042 1046.4504 34.7167 0.9478
4050.00 1523.1616 1046.4959 34.7168 0.9422
4060.00 1523.3190 1046.5414 34.7169 0.9366
4070.00 1523.4763 1046.5870 34.7170 0.9311
4080.00 1523.6337 1046.6325 34.7171 0.9255
4090.00 1523.7911 1046.6780 34.7172 0.9199
4100.00 1523.9485 1046.7235 34.7173 0.9143
4110.00 1524.1058 1046.7690 34.7174 0.9088
4120.00 1524.2632 1046.8145 34.7175 0.9032
4130.00 1524.4206 1046.8600 34.7176 0.8976
4140.00 1524.5779 1046.9055 34.7177 0.8921
4150.00 1524.7353 1046.9510 34.7178 0.8865
4160.00 1524.8927 1046.9965 34.7179 0.8809
4170.00 1525.0501 1047.0420 34.7180 0.8753
4180.00 1525.2074 1047.0875 34.7181 0.8698
4190.00 1525.3648 1047.1330 34.7182 0.8642
4200.00 1525.5222 1047.1785 34.7183 0.8586
4210.00 1525.6796 1047.2240 34.7184 0.8531
4220.00 1525.8369 1047.2696 34.7185 0.8475
4230.00 1525.9943 1047.3151 34.7186 0.8419
4240.00 1526.1517 1047.3606 34.7187 0.8363
4250.00 1526.3091 1047.4061 34.7188 0.8308
4260.00 1526.4664 1047.4516 34.7189 0.8252
4270.00 1526.6284 1047.4968 34.7190 0.8205
4280.00 1526.7939 1047.5417 34.7190 0.8164
4290.00 1526.9593 1047.5867 34.7189 0.8123
4300.00 1527.1247 1047.6316 34.7189 0.8083
4310.00 1527.2901 1047.6765 34.7189 0.8042
4320.00 1527.4555 1047.7215 34.7189 0.8001
4330.00 1527.6209 1047.7664 34.7189 0.7960
4340.00 1527.7864 1047.8114 34.7188 0.7920
4350.00 1527.9518 1047.8563 34.7188 0.7879
4360.00 1528.1172 1047.9013 34.7188 0.7838
4370.00 1528.2826 1047.9462 34.7188 0.7798
4380.00 1528.4480 1047.9911 34.7188 0.7757
4390.00 1528.6135 1048.0361 34.7188 0.7716
4400.00 1528.7789 1048.0810 34.7187 0.7675
4410.00 1528.9443 1048.1260 34.7187 0.7635
4420.00 1529.1097 1048.1709 34.7187 0.7594
4430.00 1529.2751 1048.2159 34.7187 0.7553
4440.00 1529.4406 1048.2608 34.7187 0.7513
4450.00 1529.6060 1048.3057 34.7187 0.7472
4460.00 1529.7714 1048.3507 34.7186 0.7431
4470.00 1529.9368 1048.3956 34.7186 0.7390
4480.00 1530.1022 1048.4406 34.7186 0.7350
4490.00 1530.2677 1048.4855 34.7186 0.7309
4500.00 1530.4331 1048.5305 34.7186 0.7268
4510.00 1530.5985 1048.5754 34.7185 0.7228
4520.00 1530.7639 1048.6204 34.7185 0.7187
4530.00 1530.9293 1048.6653 34.7185 0.7146
4540.00 1531.0948 1048.7102 34.7185 0.7105
4550.00 1531.2602 1048.7552 34.7185 0.7065
4560.00 1531.4256 1048.8001 34.7185 0.7024
4570.00 1531.5910 1048.8451 34.7184 0.6983
4580.00 1531.7564 1048.8900 34.7184 0.6943
4590.00 1531.9219 1048.9350 34.7184 0.6902
4600.00 1532.0873 1048.9799 34.7184 0.6861
4610.00 1532.2527 1049.0248 34.7184 0.6820
4620.00 1532.4181 1049.0698 34.7184 0.6780
4630.00 1532.5835 1049.1147 34.7183 0.6739
4640.00 1532.7490 1049.1597 34.7183 0.6698
4650.00 1532.9244 1049.2040 34.7183 0.6677
4660.00 1533.1001 1049.2483 34.7182 0.6656
4670.00 1533.2758 1049.2926 34.7182 0.6635
4680.00 1533.4515 1049.3369 34.7181 0.6614
4690.00 1533.6272 1049.3812 34.7181 0.6593
4700.00 1533.8030 1049.4255 34.7180 0.6572
4710.00 1533.9787 1049.4698 34.7180 0.6551
4720.00 1534.1544 1049.5142 34.7179 0.6530
4730.00 1534.3301 1049.5585 34.7179 0.6509
4740.00 1534.5058 1049.6028 34.7178 0.6488
4750.00 1534.6815 1049.6471 34.7178 0.6467
4760.00 1534.8572 1049.6914 34.7177 0.6445
4770.00 1535.0329 1049.7357 34.7177 0.6424
4780.00 1535.2086 1049.7800 34.7177 0.6403
4790.00 1535.3844 1049.8243 34.7176 0.6382
4800.00 1535.5601 1049.8686 34.7176 0.6361
4810.00 1535.7358 1049.9129 34.7175 0.6340
4820.00 1535.9115 1049.9572 34.7175 0.6319
4830.00 1536.0872 1050.0016 34.7174 0.6298
4840.00 1536.2629 1050.0459 34.7174 0.6277
4850.00 1536.4386 1050.0902 34.7173 0.6256
4860.00 1536.6143 1050.1345 34.7173 0.6235
4870.00 1536.7900 1050.1788 34.7172 0.6214
4880.00 1536.9657 1050.2231 34.7172 0.6193
4890.00 1537.1415 1050.2674 34.7171 0.6172
4900.00 1537.3172 1050.3117 34.7171 0.6151
4910.00 1537.4929 1050.3560 34.7170 0.6130
4920.00 1537.6686 1050.4003 34.7170 0.6109
4930.00 1537.8443 1050.4446 34.7169 0.6088
4940.00 1538.0200 1050.4889 34.7169 0.6067
4950.00 1538.1957 1050.5333 34.7168 0.6046
4960.00 1538.3714 1050.5776 34.7168 0.6025
4970.00 1538.5471 1050.6219 34.7167 0.6004
4980.00 1538.7229 1050.6662 34.7167 0.5983
4990.00 1538.8986 1050.7105 34.7167 0.5962
5000.00 1539.0743 1050.7548 34.7166 0.5941
5010.00 1539.2500 1050.7991 34.7166 0.5920
5020.00 1539.4257 1050.8434 34.7165 0.5899
5030.00 1539.6014 1050.8877 34.7165 0.5878
5040.00 1539.7777 1050.9320 34.7164 0.5858
5050.00 1539.9614 1050.9757 34.7164 0.5852
5060.00 1540.1452 1051.0195 34.7164 0.5845
5070.00 1540.3289 1051.0632 34.7163 0.5839
5080.00 1540.5127 1051.1070 34.7163 0.5833
5090.00 1540.6964 1051.1507 34.7163 0.5826
5100.00 1540.8801 1051.1945 34.7163 0.5820
5110.00 1541.0639 1051.2383 34.7163 0.5814
5120.00 1541.2476 1051.2820 34.7162 0.5807
5130.00 1541.4313 1051.3258 34.7162 0.5801
5140.00 1541.6151 1051.3695 34.7162 0.5795
5150.00 1541.7988 1051.4133 34.7162 0.5788
5160.00 1541.9825 1051.4570 34.7161 0.5782
5170.00 1542.1663 1051.5008 34.7161 0.5776
5180.00 1542.3500 1051.5445 34.7161 0.5769
5190.00 1542.5337 1051.5883 34.7161 0.5763
5200.00 1542.7175 1051.6320 34.7160 0.5757
5210.00 1542.9012 1051.6758 34.7160 0.5751
5220.00 1543.0849 1051.7195 34.7160 0.5744
5230.00 1543.2687 1051.7633 34.7160 0.5738
5240.00 1543.4524 1051.8070 34.7159 0.5732
5250.00 1543.6361 1051.8508 34.7159 0.5725
5260.00 1543.8199 1051.8945 34.7159 0.5719
5270.00 1544.0036 1051.9383 34.7159 0.5713
5280.00 1544.1873 1051.9820 34.7158 0.5706
5290.00 1544.3711 1052.0258 34.7158 0.5700
5300.00 1544.5548 1052.0695 34.7158 0.5694
5310.00 1544.7385 1052.1133 34.7158 0.5687
5320.00 1544.9223 1052.1570 34.7158 0.5681
5330.00 1545.1060 1052.2008 34.7157 0.5675
5340.00 1545.2897 1052.2445 34.7157 0.5668
5350.00 1545.4735 1052.2883 34.7157 0.5662
5360.00 1545.6572 1052.3320 34.7157 0.5656
5370.00 1545.8409 1052.3758 34.7156 0.5649
5380.00 1546.0247 1052.4195 34.7156 0.5643
5390.00 1546.2084 1052.4633 34.7156 0.5637
5400.00 1546.3921 1052.5070 34.7156 0.5630
5410.00 1546.5759 1052.5508 34.7155 0.5624
5420.00 1546.7596 1052.5945 34.7155 0.5618
5430.00 1546.9433 1052.6383 34.7155 0.5611
5440.00 1547.1271 1052.6820 34.7155 0.5605
5450.00 1547.3108 1052.7258 34.7154 0.5599
5460.00 1547.4945 1052.7695 34.7154 0.5592
5470.00 1547.6819 1052.8129 34.7154 0.5592
5480.00 1547.8698 1052.8562 34.7154 0.5592
5490.00 1548.0576 1052.8995 34.7154 0.5592
5500.00 1548.2455 1052.9428 34.7154 0.5592
5510.00 1548.4334 1052.9862 34.7154 0.5592
5520.00 1548.6213 1053.0295 34.7154 0.5592
5530.00 1548.8091 1053.0728 34.7154 0.5592
5540.00 1548.9970 1053.1161 34.7154 0.5592
5550.00 1549.1849 1053.1594 34.7154 0.5592
5560.00 1549.3728 1053.2027 34.7154 0.5592
5570.00 1549.5606 1053.2460 34.7154 0.5592
5580.00 1549.7485 1053.2894 34.7154 0.5592
