# Averages over distance (i) for each depth (k):
# Depth(m) Speed(m/s) Density(kg/m^3) Salt PSU Theta(degC)
0.00 1511.3593 1025.0081 34.2726 16.7985
10.00 1511.4339 1025.0586 34.2710 16.7676
20.00 1511.3611 1025.1187 34.2675 16.6889
30.00 1510.9087 1025.2028 34.2581 16.4880
40.00 1509.9720 1025.3167 34.2420 16.1333
50.00 1508.6274 1025.4539 34.2207 15.6528
60.00 1507.0725 1025.6002 34.1967 15.1127
70.00 1505.4934 1025.7438 34.1725 14.5727
80.00 1504.0178 1025.8770 34.1488 14.0720
90.00 1502.6972 1025.9970 34.1253 13.6249
100.00 1501.5295 1026.1045 34.1014 13.2292
110.00 1500.5062 1026.2022 34.0788 12.8803
120.00 1499.5893 1026.2945 34.0590 12.5649
130.00 1498.7019 1026.3869 34.0429 12.2594
140.00 1497.7942 1026.4831 34.0314 11.9485
150.00 1496.8854 1026.5898 34.0343 11.6353
160.00 1496.0248 1026.7036 34.0500 11.3334
170.00 1495.2030 1026.8230 34.0759 11.0406
180.00 1494.5149 1026.9465 34.1164 10.7833
190.00 1493.8689 1027.0713 34.1615 10.5372
200.00 1493.3190 1027.1916 34.2079 10.3191
210.00 1492.8555 1027.3078 34.2555 10.1262
220.00 1492.3920 1027.4241 34.3030 9.9333
230.00 1491.9838 1027.5273 34.3392 9.7616
240.00 1491.5962 1027.6256 34.3711 9.5977
250.00 1491.2086 1027.7239 34.4030 9.4338
260.00 1490.8136 1027.8172 34.4289 9.2707
270.00 1490.3965 1027.8959 34.4372 9.1097
280.00 1489.9795 1027.9746 34.4456 8.9487
290.00 1489.5624 1028.0532 34.4539 8.7877
300.00 1489.1451 1028.1318 34.4621 8.6267
310.00 1488.6799 1028.1983 34.4553 8.4613
320.00 1488.2147 1028.2648 34.4484 8.2959
330.00 1487.7495 1028.3312 34.4416 8.1305
340.00 1487.2843 1028.3977 34.4348 7.9651
350.00 1486.8191 1028.4642 34.4279 7.7997
360.00 1486.4005 1028.5244 34.4176 7.6509
370.00 1485.9853 1028.5841 34.4070 7.5034
380.00 1485.5701 1028.6437 34.3965 7.3558
390.00 1485.1549 1028.7034 34.3859 7.2083
400.00 1484.7397 1028.7631 34.3753 7.0607
410.00 1484.3256 1028.8228 34.3648 6.9135
420.00 1484.0652 1028.8779 34.3570 6.8073
430.00 1483.8049 1028.9329 34.3493 6.7011
440.00 1483.5445 1028.9880 34.3416 6.5949
450.00 1483.2841 1029.0430 34.3338 6.4887
460.00 1483.0238 1029.0981 34.3261 6.3825
470.00 1482.7634 1029.1532 34.3183 6.2763
480.00 1482.5396 1029.2077 34.3117 6.1793
490.00 1482.4239 1029.2608 34.3083 6.1095
500.00 1482.3082 1029.3138 34.3049 6.0397
510.00 1482.1924 1029.3669 34.3016 5.9698
520.00 1482.0767 1029.4199 34.2982 5.9000
530.00 1481.9610 1029.4730 34.2948 5.8302
540.00 1481.8453 1029.5260 34.2914 5.7604
550.00 1481.7295 1029.5791 34.2881 5.6905
560.00 1481.6674 1029.6321 34.2870 5.6338
570.00 1481.6252 1029.6851 34.2869 5.5819
580.00 1481.5830 1029.7381 34.2868 5.5299
590.00 1481.5408 1029.7911 34.2866 5.4780
600.00 1481.4986 1029.8442 34.2865 5.4261
610.00 1481.4564 1029.8972 34.2863 5.3742
620.00 1481.4142 1029.9502 34.2862 5.3223
630.00 1481.3720 1030.0032 34.2861 5.2703
640.00 1481.3416 1030.0566 34.2870 5.2212
650.00 1481.3218 1030.1104 34.2888 5.1747
660.00 1481.3020 1030.1642 34.2907 5.1281
670.00 1481.2822 1030.2180 34.2925 5.0815
680.00 1481.2624 1030.2718 34.2944 5.0349
690.00 1481.2426 1030.3256 34.2962 4.9883
700.00 1481.2228 1030.3794 34.2981 4.9417
710.00 1481.2030 1030.4332 34.2999 4.8952
720.00 1481.1832 1030.4870 34.3018 4.8486
730.00 1481.1701 1030.5414 34.3047 4.8036
740.00 1481.1590 1030.5960 34.3080 4.7591
750.00 1481.1479 1030.6506 34.3113 4.7146
760.00 1481.1369 1030.7052 34.3146 4.6701
770.00 1481.1258 1030.7598 34.3178 4.6256
780.00 1481.1147 1030.8144 34.3211 4.5811
790.00 1481.1036 1030.8690 34.3244 4.5366
800.00 1481.0926 1030.9236 34.3277 4.4921
810.00 1481.0815 1030.9782 34.3310 4.4476
820.00 1481.0800 1031.0330 34.3349 4.4054
830.00 1481.0862 1031.0879 34.3393 4.3650
840.00 1481.0923 1031.1428 34.3437 4.3247
850.00 1481.0985 1031.1977 34.3481 4.2843
860.00 1481.1047 1031.2526 34.3525 4.2440
870.00 1481.1109 1031.3075 34.3569 4.2036
880.00 1481.1170 1031.3624 34.3614 4.1633
890.00 1481.1232 1031.4173 34.3658 4.1229
900.00 1481.1294 1031.4722 34.3702 4.0826
910.00 1481.1364 1031.5271 34.3746 4.0424
920.00 1481.1737 1031.5813 34.3794 4.0096
930.00 1481.2110 1031.6355 34.3842 3.9768
940.00 1481.2484 1031.6897 34.3890 3.9440
950.00 1481.2857 1031.7439 34.3938 3.9112
960.00 1481.3230 1031.7982 34.3986 3.8784
970.00 1481.3604 1031.8524 34.4035 3.8456
980.00 1481.3977 1031.9066 34.4083 3.8128
990.00 1481.4350 1031.9608 34.4131 3.7800
1000.00 1481.4724 1032.0150 34.4179 3.7472
1010.00 1481.5181 1032.0689 34.4226 3.7164
1020.00 1481.5848 1032.1218 34.4269 3.6908
1030.00 1481.6515 1032.1747 34.4313 3.6652
1040.00 1481.7182 1032.2276 34.4356 3.6397
1050.00 1481.7849 1032.2805 34.4399 3.6141
1060.00 1481.8516 1032.3335 34.4443 3.5885
1070.00 1481.9183 1032.3864 34.4486 3.5629
1080.00 1481.9850 1032.4393 34.4530 3.5373
1090.00 1482.0517 1032.4922 34.4573 3.5117
1100.00 1482.1184 1032.5451 34.4617 3.4861
1110.00 1482.1918 1032.5975 34.4657 3.4622
1120.00 1482.2748 1032.6493 34.4692 3.4407
1130.00 1482.3578 1032.7010 34.4727 3.4193
1140.00 1482.4408 1032.7527 34.4763 3.3978
1150.00 1482.5238 1032.8045 34.4798 3.3763
1160.00 1482.6068 1032.8562 34.4833 3.3549
1170.00 1482.6898 1032.9079 34.4869 3.3334
1180.00 1482.7729 1032.9596 34.4904 3.3120
1190.00 1482.8559 1033.0114 34.4939 3.2905
1200.00 1482.9389 1033.0631 34.4975 3.2690
1210.00 1483.0253 1033.1144 34.5007 3.2485
1220.00 1483.1158 1033.1653 34.5035 3.2290
1230.00 1483.2064 1033.2162 34.5063 3.2096
1240.00 1483.2970 1033.2671 34.5091 3.1901
1250.00 1483.3876 1033.3179 34.5119 3.1707
1260.00 1483.4782 1033.3688 34.5147 3.1512
1270.00 1483.5688 1033.4197 34.5176 3.1318
1280.00 1483.6593 1033.4706 34.5204 3.1123
1290.00 1483.7499 1033.5214 34.5232 3.0929
1300.00 1483.8405 1033.5723 34.5260 3.0734
1310.00 1483.9328 1033.6230 34.5286 3.0544
1320.00 1484.0279 1033.6733 34.5310 3.0362
1330.00 1484.1230 1033.7236 34.5333 3.0179
1340.00 1484.2180 1033.7739 34.5356 2.9997
1350.00 1484.3131 1033.8242 34.5379 2.9815
1360.00 1484.4082 1033.8745 34.5402 2.9632
1370.00 1484.5033 1033.9248 34.5425 2.9450
1380.00 1484.5984 1033.9751 34.5449 2.9267
1390.00 1484.6935 1034.0254 34.5472 2.9085
1400.00 1484.7886 1034.0757 34.5495 2.8902
1410.00 1484.8840 1034.1260 34.5518 2.8721
1420.00 1484.9830 1034.1759 34.5538 2.8548
1430.00 1485.0820 1034.2257 34.5557 2.8376
1440.00 1485.1810 1034.2756 34.5577 2.8203
1450.00 1485.2801 1034.3255 34.5597 2.8031
1460.00 1485.3791 1034.3754 34.5617 2.7858
1470.00 1485.4781 1034.4252 34.5637 2.7686
1480.00 1485.5771 1034.4751 34.5656 2.7514
1490.00 1485.6762 1034.5250 34.5676 2.7341
1500.00 1485.7752 1034.5749 34.5696 2.7169
1510.00 1485.8742 1034.6247 34.5716 2.6996
1520.00 1485.9746 1034.6745 34.5735 2.6827
1530.00 1486.0785 1034.7240 34.5752 2.6667
1540.00 1486.1824 1034.7734 34.5769 2.6506
1550.00 1486.2864 1034.8229 34.5786 2.6346
1560.00 1486.3903 1034.8724 34.5803 2.6185
1570.00 1486.4942 1034.9218 34.5820 2.6025
1580.00 1486.5981 1034.9713 34.5837 2.5864
1590.00 1486.7020 1035.0207 34.5854 2.5703
1600.00 1486.8059 1035.0702 34.5871 2.5543
1610.00 1486.9098 1035.1197 34.5888 2.5382
1620.00 1487.0137 1035.1691 34.5905 2.5222
1630.00 1487.1176 1035.2186 34.5922 2.5061
1640.00 1487.2257 1035.2678 34.5937 2.4911
1650.00 1487.3369 1035.3168 34.5952 2.4767
1660.00 1487.4480 1035.3658 34.5966 2.4623
1670.00 1487.5591 1035.4148 34.5980 2.4480
1680.00 1487.6703 1035.4638 34.5995 2.4336
1690.00 1487.7814 1035.5128 34.6009 2.4192
1700.00 1487.8925 1035.5618 34.6023 2.4049
1710.00 1488.0037 1035.6108 34.6038 2.3905
1720.00 1488.1148 1035.6598 34.6052 2.3761
1730.00 1488.2259 1035.7087 34.6066 2.3618
1740.00 1488.3371 1035.7577 34.6080 2.3474
1750.00 1488.4482 1035.8067 34.6095 2.3330
1760.00 1488.5594 1035.8557 34.6109 2.3187
1770.00 1488.6751 1035.9045 34.6122 2.3053
1780.00 1488.7957 1035.9529 34.6134 2.2931
1790.00 1488.9163 1036.0014 34.6145 2.2809
1800.00 1489.0369 1036.0499 34.6157 2.2687
1810.00 1489.1576 1036.0983 34.6169 2.2565
1820.00 1489.2782 1036.1468 34.6180 2.2443
1830.00 1489.3988 1036.1952 34.6192 2.2321
1840.00 1489.5194 1036.2437 34.6204 2.2199
1850.00 1489.6400 1036.2921 34.6215 2.2077
1860.00 1489.7606 1036.3406 34.6227 2.1955
1870.00 1489.8813 1036.3891 34.6238 2.1833
1880.00 1490.0019 1036.4375 34.6250 2.1711
1890.00 1490.1225 1036.4860 34.6262 2.1589
1900.00 1490.2431 1036.5344 34.6273 2.1467
1910.00 1490.3637 1036.5829 34.6285 2.1345
1920.00 1490.4906 1036.6310 34.6295 2.1237
1930.00 1490.6219 1036.6789 34.6304 2.1139
1940.00 1490.7533 1036.7268 34.6314 2.1040
1950.00 1490.8846 1036.7747 34.6323 2.0942
1960.00 1491.0159 1036.8226 34.6332 2.0844
1970.00 1491.1472 1036.8705 34.6341 2.0746
1980.00 1491.2786 1036.9184 34.6350 2.0648
1990.00 1491.4099 1036.9663 34.6360 2.0549
2000.00 1491.5412 1037.0142 34.6369 2.0451
2010.00 1491.6725 1037.0621 34.6378 2.0353
2020.00 1491.8039 1037.1100 34.6387 2.0255
2030.00 1491.9352 1037.1579 34.6396 2.0157
