# Averages over distance (i) for each depth (k):
# Depth(m) Speed(m/s) Density(kg/m^3) Salt PSU Theta(degC)
0.00 1540.7589 1022.5807 35.1273 27.7262
10.00 1540.8951 1022.6302 35.1286 27.7098
20.00 1540.9658 1022.6922 35.1331 27.6621
30.00 1540.8645 1022.7873 35.1462 27.5323
40.00 1540.5906 1022.9123 35.1648 27.3226
50.00 1540.2269 1023.0481 35.1820 27.0748
60.00 1539.8323 1023.1852 35.1968 26.8164
70.00 1539.4105 1023.3240 35.2105 26.5485
80.00 1538.9178 1023.4713 35.2243 26.2520
90.00 1538.2891 1023.6344 35.2369 25.9003
100.00 1537.4550 1023.8186 35.2453 25.4670
110.00 1536.3612 1024.0248 35.2447 24.9352
120.00 1535.0069 1024.2467 35.2309 24.3110
130.00 1533.4549 1024.4746 35.2042 23.6242
140.00 1531.7910 1024.7004 35.1683 22.9094
150.00 1530.1173 1024.9101 35.1252 22.2135
160.00 1528.4968 1025.1065 35.0807 21.5503
170.00 1526.9192 1025.2921 35.0352 20.9133
180.00 1525.4400 1025.4595 34.9902 20.3284
190.00 1523.9918 1025.6211 34.9455 19.7600
200.00 1522.6117 1025.7718 34.9022 19.2259
210.00 1521.2929 1025.9126 34.8602 18.7228
220.00 1519.9741 1026.0534 34.8183 18.2197
230.00 1518.7273 1026.1824 34.7790 17.7547
240.00 1517.5073 1026.3071 34.7407 17.3038
250.00 1516.2873 1026.4317 34.7024 16.8529
260.00 1515.0799 1026.5535 34.6651 16.4109
270.00 1513.9098 1026.6667 34.6307 15.9948
280.00 1512.7397 1026.7799 34.5962 15.5787
290.00 1511.5695 1026.8931 34.5618 15.1626
300.00 1510.3996 1027.0063 34.5274 14.7467
310.00 1509.2606 1027.1109 34.4980 14.3586
320.00 1508.1216 1027.2154 34.4687 13.9706
330.00 1506.9826 1027.3200 34.4394 13.5825
340.00 1505.8436 1027.4245 34.4101 13.1944
350.00 1504.7046 1027.5290 34.3808 12.8064
360.00 1503.6341 1027.6260 34.3589 12.4543
370.00 1502.5687 1027.7223 34.3376 12.1048
380.00 1501.5033 1027.8187 34.3163 11.7553
390.00 1500.4379 1027.9151 34.2950 11.4059
400.00 1499.3725 1028.0114 34.2737 11.0564
410.00 1498.3082 1028.1078 34.2524 10.7073
420.00 1497.4007 1028.1958 34.2415 10.4155
430.00 1496.4933 1028.2839 34.2307 10.1236
440.00 1495.5859 1028.3720 34.2198 9.8318
450.00 1494.6785 1028.4601 34.2089 9.5399
460.00 1493.7711 1028.5482 34.1981 9.2481
470.00 1492.8636 1028.6363 34.1872 8.9562
480.00 1492.0185 1028.7223 34.1789 8.6831
490.00 1491.3571 1028.8021 34.1785 8.4655
500.00 1490.6957 1028.8819 34.1780 8.2478
510.00 1490.0343 1028.9617 34.1775 8.0301
520.00 1489.3729 1029.0415 34.1770 7.8125
530.00 1488.7115 1029.1214 34.1766 7.5948
540.00 1488.0501 1029.2012 34.1761 7.3772
550.00 1487.3887 1029.2810 34.1756 7.1595
560.00 1486.9315 1029.3551 34.1805 6.9973
570.00 1486.5503 1029.4271 34.1873 6.8558
580.00 1486.1690 1029.4990 34.1942 6.7142
590.00 1485.7877 1029.5710 34.2010 6.5727
600.00 1485.4065 1029.6430 34.2079 6.4311
610.00 1485.0252 1029.7149 34.2148 6.2896
620.00 1484.6439 1029.7869 34.2216 6.1480
630.00 1484.2627 1029.8588 34.2285 6.0065
640.00 1483.9987 1029.9273 34.2368 5.8952
650.00 1483.8402 1029.9925 34.2464 5.8111
660.00 1483.6817 1030.0577 34.2560 5.7271
670.00 1483.5232 1030.1229 34.2656 5.6431
680.00 1483.3646 1030.1881 34.2752 5.5590
690.00 1483.2061 1030.2534 34.2847 5.4750
700.00 1483.0476 1030.3186 34.2943 5.3910
710.00 1482.8891 1030.3838 34.3039 5.3069
720.00 1482.7306 1030.4490 34.3135 5.2229
730.00 1482.6612 1030.5103 34.3223 5.1617
740.00 1482.6199 1030.5704 34.3309 5.1078
750.00 1482.5787 1030.6305 34.3394 5.0539
760.00 1482.5374 1030.6906 34.3480 5.0000
770.00 1482.4961 1030.7507 34.3565 4.9461
780.00 1482.4549 1030.8108 34.3651 4.8922
790.00 1482.4136 1030.8709 34.3736 4.8383
800.00 1482.3723 1030.9310 34.3822 4.7844
810.00 1482.3311 1030.9910 34.3907 4.7305
820.00 1482.3157 1031.0491 34.3979 4.6835
830.00 1482.3212 1031.1055 34.4040 4.6422
840.00 1482.3268 1031.1619 34.4101 4.6009
850.00 1482.3324 1031.2183 34.4162 4.5596
860.00 1482.3379 1031.2747 34.4224 4.5183
870.00 1482.3435 1031.3311 34.4285 4.4770
880.00 1482.3490 1031.3875 34.4346 4.4357
890.00 1482.3546 1031.4439 34.4407 4.3944
900.00 1482.3601 1031.5003 34.4468 4.3531
910.00 1482.3663 1031.5567 34.4528 4.3119
920.00 1482.3942 1031.6105 34.4569 4.2769
930.00 1482.4221 1031.6644 34.4609 4.2419
940.00 1482.4501 1031.7183 34.4649 4.2070
950.00 1482.4780 1031.7721 34.4689 4.1720
960.00 1482.5059 1031.8260 34.4729 4.1370
970.00 1482.5339 1031.8799 34.4769 4.1020
980.00 1482.5618 1031.9337 34.4809 4.0670
990.00 1482.5898 1031.9876 34.4849 4.0320
1000.00 1482.6177 1032.0415 34.4889 3.9970
1010.00 1482.6498 1032.0949 34.4926 3.9632
1020.00 1482.6923 1032.1471 34.4953 3.9323
1030.00 1482.7348 1032.1994 34.4980 3.9014
1040.00 1482.7774 1032.2517 34.5007 3.8705
1050.00 1482.8199 1032.3039 34.5034 3.8396
1060.00 1482.8624 1032.3562 34.5061 3.8087
1070.00 1482.9049 1032.4084 34.5088 3.7778
1080.00 1482.9474 1032.4607 34.5115 3.7469
1090.00 1482.9900 1032.5129 34.5142 3.7160
1100.00 1483.0325 1032.5652 34.5169 3.6851
1110.00 1483.0790 1032.6171 34.5193 3.6553
1120.00 1483.1312 1032.6684 34.5212 3.6270
1130.00 1483.1833 1032.7196 34.5232 3.5988
1140.00 1483.2355 1032.7709 34.5251 3.5706
1150.00 1483.2877 1032.8222 34.5271 3.5423
1160.00 1483.3399 1032.8735 34.5290 3.5141
1170.00 1483.3921 1032.9248 34.5310 3.4858
1180.00 1483.4443 1032.9761 34.5329 3.4576
1190.00 1483.4964 1033.0274 34.5349 3.4293
1200.00 1483.5486 1033.0787 34.5368 3.4011
1210.00 1483.6037 1033.1297 34.5386 3.3736
1220.00 1483.6623 1033.1804 34.5401 3.3471
1230.00 1483.7209 1033.2311 34.5416 3.3206
1240.00 1483.7795 1033.2818 34.5431 3.2941
1250.00 1483.8381 1033.3325 34.5447 3.2677
1260.00 1483.8967 1033.3832 34.5462 3.2412
1270.00 1483.9553 1033.4339 34.5477 3.2147
1280.00 1484.0139 1033.4846 34.5492 3.1882
1290.00 1484.0724 1033.5353 34.5507 3.1617
1300.00 1484.1310 1033.5860 34.5522 3.1352
1310.00 1484.1923 1033.6365 34.5537 3.1094
1320.00 1484.2579 1033.6868 34.5550 3.0846
1330.00 1484.3234 1033.7370 34.5562 3.0599
1340.00 1484.3890 1033.7873 34.5575 3.0352
1350.00 1484.4546 1033.8375 34.5588 3.0105
1360.00 1484.5201 1033.8878 34.5601 2.9858
1370.00 1484.5857 1033.9381 34.5614 2.9611
1380.00 1484.6513 1033.9883 34.5626 2.9363
1390.00 1484.7168 1034.0386 34.5639 2.9116
1400.00 1484.7824 1034.0888 34.5652 2.8869
1410.00 1484.8489 1034.1391 34.5665 2.8624
1420.00 1484.9251 1034.1888 34.5676 2.8403
1430.00 1485.0014 1034.2386 34.5687 2.8181
