# Averages over distance (i) for each depth (k):
# Depth(m) Speed(m/s) Density(kg/m^3) Salt PSU Theta(degC)
0.00 1541.0927 1022.4627 35.0532 27.9170
10.00 1541.2331 1022.5116 35.0544 27.9025
20.00 1541.3297 1022.5697 35.0587 27.8665
30.00 1541.2984 1022.6552 35.0722 27.7675
40.00 1541.1093 1022.7710 35.0935 27.5933
50.00 1540.8168 1022.9014 35.1148 27.3734
60.00 1540.4856 1023.0340 35.1333 27.1391
70.00 1540.1281 1023.1682 35.1504 26.8955
80.00 1539.7136 1023.3099 35.1681 26.6283
90.00 1539.1930 1023.4660 35.1870 26.3165
100.00 1538.4982 1023.6439 35.2057 25.9326
110.00 1537.5502 1023.8481 35.2195 25.4482
120.00 1536.3200 1024.0741 35.2219 24.8585
130.00 1534.8544 1024.3110 35.2101 24.1889
140.00 1533.2317 1024.5494 35.1863 23.4731
150.00 1531.5303 1024.7747 35.1500 22.7519
160.00 1529.8516 1024.9865 35.1095 22.0543
170.00 1528.1911 1025.1875 35.0655 21.3759
180.00 1526.6040 1025.3685 35.0191 20.7445
190.00 1525.0399 1025.5434 34.9721 20.1279
200.00 1523.5334 1025.7060 34.9254 19.5447
210.00 1522.0787 1025.8576 34.8791 18.9916
220.00 1520.6239 1026.0092 34.8329 18.4385
230.00 1519.2308 1026.1476 34.7889 17.9235
240.00 1517.8606 1026.2812 34.7457 17.4226
250.00 1516.4905 1026.4148 34.7025 16.9217
260.00 1515.1319 1026.5451 34.6605 16.4304
270.00 1513.8074 1026.6657 34.6221 15.9673
280.00 1512.4830 1026.7863 34.5836 15.5042
290.00 1511.1585 1026.9070 34.5452 15.0411
300.00 1509.8345 1027.0275 34.5068 14.5783
310.00 1508.5744 1027.1371 34.4761 14.1567
320.00 1507.3142 1027.2467 34.4453 13.7351
330.00 1506.0540 1027.3563 34.4146 13.3135
340.00 1504.7939 1027.4659 34.3839 12.8919
350.00 1503.5337 1027.5755 34.3532 12.4703
360.00 1502.4057 1027.6750 34.3328 12.1044
370.00 1501.2874 1027.7738 34.3131 11.7426
380.00 1500.1691 1027.8726 34.2934 11.3808
390.00 1499.0508 1027.9714 34.2737 11.0189
400.00 1497.9325 1028.0701 34.2541 10.6571
410.00 1496.8159 1028.1688 34.2345 10.2958
420.00 1495.9391 1028.2569 34.2271 10.0139
430.00 1495.0624 1028.3449 34.2197 9.7320
440.00 1494.1856 1028.4330 34.2123 9.4500
450.00 1493.3088 1028.5210 34.2049 9.1681
460.00 1492.4321 1028.6091 34.1975 8.8862
470.00 1491.5553 1028.6971 34.1901 8.6042
480.00 1490.7558 1028.7827 34.1852 8.3445
490.00 1490.1843 1028.8609 34.1880 8.1506
500.00 1489.6129 1028.9390 34.1908 7.9567
510.00 1489.0414 1029.0172 34.1936 7.7627
520.00 1488.4700 1029.0954 34.1964 7.5688
530.00 1487.8985 1029.1735 34.1992 7.3749
540.00 1487.3270 1029.2517 34.2020 7.1809
550.00 1486.7556 1029.3299 34.2048 6.9870
560.00 1486.3880 1029.4021 34.2118 6.8475
570.00 1486.0962 1029.4721 34.2204 6.7283
580.00 1485.8045 1029.5421 34.2289 6.6090
590.00 1485.5127 1029.6121 34.2375 6.4898
600.00 1485.2209 1029.6820 34.2461 6.3705
610.00 1484.9291 1029.7520 34.2547 6.2513
620.00 1484.6373 1029.8220 34.2632 6.1320
630.00 1484.3455 1029.8920 34.2718 6.0128
640.00 1484.1466 1029.9587 34.2809 5.9176
650.00 1484.0311 1030.0225 34.2905 5.8441
660.00 1483.9157 1030.0863 34.3001 5.7706
670.00 1483.8002 1030.1500 34.3096 5.6971
680.00 1483.6848 1030.2138 34.3192 5.6236
690.00 1483.5693 1030.2776 34.3288 5.5501
700.00 1483.4539 1030.3414 34.3383 5.4766
710.00 1483.3384 1030.4052 34.3479 5.4031
720.00 1483.2230 1030.4689 34.3575 5.3296
730.00 1483.1659 1030.5292 34.3655 5.2716
740.00 1483.1272 1030.5884 34.3729 5.2185
750.00 1483.0885 1030.6475 34.3804 5.1654
760.00 1483.0498 1030.7066 34.3879 5.1124
770.00 1483.0112 1030.7658 34.3953 5.0593
780.00 1482.9725 1030.8249 34.4028 5.0062
790.00 1482.9338 1030.8841 34.4103 4.9531
800.00 1482.8951 1030.9432 34.4177 4.9000
810.00 1482.8565 1031.0024 34.4252 4.8470
820.00 1482.8358 1031.0597 34.4312 4.7990
830.00 1482.8297 1031.1154 34.4361 4.7552
840.00 1482.8236 1031.1712 34.4410 4.7113
850.00 1482.8175 1031.2270 34.4458 4.6675
860.00 1482.8114 1031.2827 34.4507 4.6237
870.00 1482.8052 1031.3385 34.4555 4.5798
880.00 1482.7991 1031.3942 34.4604 4.5360
890.00 1482.7930 1031.4500 34.4652 4.4922
900.00 1482.7869 1031.5058 34.4701 4.4483
910.00 1482.7814 1031.5615 34.4749 4.4047
920.00 1482.7964 1031.6150 34.4780 4.3668
930.00 1482.8115 1031.6685 34.4811 4.3290
940.00 1482.8266 1031.7220 34.4842 4.2911
950.00 1482.8416 1031.7756 34.4873 4.2533
960.00 1482.8567 1031.8291 34.4904 4.2155
970.00 1482.8718 1031.8826 34.4935 4.1776
980.00 1482.8869 1031.9361 34.4966 4.1398
990.00 1482.9019 1031.9897 34.4997 4.1020
1000.00 1482.9170 1032.0432 34.5028 4.0641
1010.00 1482.9368 1032.0963 34.5057 4.0276
1020.00 1482.9684 1032.1485 34.5079 3.9942
1030.00 1483.0000 1032.2006 34.5100 3.9609
1040.00 1483.0316 1032.2528 34.5122 3.9275
1050.00 1483.0633 1032.3050 34.5144 3.8941
1060.00 1483.0949 1032.3571 34.5166 3.8608
1070.00 1483.1265 1032.4093 34.5188 3.8274
1080.00 1483.1581 1032.4615 34.5209 3.7941
1090.00 1483.1898 1032.5136 34.5231 3.7607
1100.00 1483.2214 1032.5658 34.5253 3.7274
1110.00 1483.2583 1032.6176 34.5273 3.6954
1120.00 1483.3030 1032.6689 34.5289 3.6655
1130.00 1483.3476 1032.7202 34.5306 3.6355
1140.00 1483.3922 1032.7715 34.5323 3.6056
