# Averages over distance (i) for each depth (k):
# Depth(m) Speed(m/s) Density(kg/m^3) Salt PSU Theta(degC)
0.00 1536.4978 1024.0467 36.0809 25.3695
10.00 1536.5970 1024.0995 36.0809 25.3392
20.00 1536.5156 1024.1760 36.0813 25.2324
30.00 1536.1381 1024.2892 36.0803 25.0021
40.00 1535.6183 1024.4165 36.0757 24.7156
50.00 1535.0698 1024.5428 36.0675 24.4214
60.00 1534.5168 1024.6650 36.0558 24.1297
70.00 1533.9672 1024.7828 36.0411 23.8432
80.00 1533.4368 1024.8948 36.0239 23.5681
90.00 1532.9335 1025.0003 36.0044 23.3071
100.00 1532.4508 1025.1003 35.9825 23.0575
110.00 1531.9712 1025.1968 35.9584 22.8119
120.00 1531.4794 1025.2920 35.9323 22.5644
130.00 1530.9558 1025.3874 35.9036 22.3075
140.00 1530.3797 1025.4844 35.8712 22.0338
150.00 1529.7128 1025.5848 35.8336 21.7308
160.00 1529.0199 1025.6860 35.7952 21.4210
170.00 1528.3060 1025.7877 35.7563 21.1055
180.00 1527.6162 1025.8866 35.7195 20.8022
190.00 1526.9339 1025.9845 35.6834 20.5028
200.00 1526.2624 1026.0808 35.6486 20.2100
210.00 1525.6007 1026.1755 35.6149 19.9233
220.00 1524.9389 1026.2702 35.5812 19.6366
230.00 1524.1776 1026.3687 35.5449 19.3216
240.00 1523.3793 1026.4685 35.5076 18.9962
250.00 1522.5811 1026.5683 35.4703 18.6707
260.00 1521.7069 1026.6708 35.4309 18.3238
270.00 1520.6089 1026.7814 35.3852 17.9135
280.00 1519.5110 1026.8919 35.3395 17.5031
290.00 1518.4130 1027.0024 35.2938 17.0928
300.00 1517.3129 1027.1130 35.2480 16.6820
310.00 1515.9229 1027.2278 35.1970 16.2036
320.00 1514.5329 1027.3425 35.1459 15.7252
330.00 1513.1429 1027.4572 35.0949 15.2468
340.00 1511.7529 1027.5720 35.0438 14.7684
350.00 1510.3628 1027.6867 34.9928 14.2900
360.00 1508.9264 1027.7918 34.9463 13.8262
370.00 1507.4866 1027.8961 34.9001 13.3634
380.00 1506.0467 1028.0005 34.8540 12.9007
390.00 1504.6069 1028.1048 34.8079 12.4379
400.00 1503.1671 1028.2092 34.7617 11.9751
410.00 1501.7292 1028.3134 34.7157 11.5131
420.00 1500.5676 1028.3990 34.6835 11.1534
430.00 1499.4060 1028.4845 34.6514 10.7938
440.00 1498.2444 1028.5701 34.6193 10.4341
450.00 1497.0828 1028.6556 34.5872 10.0745
460.00 1495.9212 1028.7412 34.5550 9.7148
470.00 1494.7596 1028.8267 34.5229 9.3552
480.00 1493.7051 1028.9083 34.4946 9.0273
490.00 1492.9672 1028.9783 34.4774 8.7935
500.00 1492.2293 1029.0483 34.4603 8.5598
510.00 1491.4914 1029.1182 34.4431 8.3260
520.00 1490.7535 1029.1882 34.4260 8.0922
530.00 1490.0156 1029.2582 34.4088 7.8584
540.00 1489.2777 1029.3281 34.3917 7.6246
550.00 1488.5398 1029.3981 34.3745 7.3908
560.00 1488.0566 1029.4618 34.3651 7.2256
570.00 1487.6682 1029.5232 34.3586 7.0858
580.00 1487.2797 1029.5846 34.3520 6.9461
590.00 1486.8912 1029.6460 34.3455 6.8064
600.00 1486.5028 1029.7074 34.3389 6.6666
610.00 1486.1143 1029.7688 34.3324 6.5269
620.00 1485.7258 1029.8302 34.3258 6.3871
630.00 1485.3374 1029.8916 34.3193 6.2474
640.00 1485.0579 1029.9511 34.3160 6.1355
650.00 1484.8764 1030.0090 34.3156 6.0485
660.00 1484.6949 1030.0668 34.3152 5.9616
670.00 1484.5134 1030.1247 34.3149 5.8746
680.00 1484.3319 1030.1826 34.3145 5.7877
690.00 1484.1504 1030.2404 34.3141 5.7007
700.00 1483.9689 1030.2983 34.3138 5.6138
710.00 1483.7875 1030.3562 34.3134 5.5268
720.00 1483.6060 1030.4140 34.3131 5.4398
730.00 1483.5099 1030.4708 34.3152 5.3740
740.00 1483.4409 1030.5271 34.3181 5.3149
750.00 1483.3719 1030.5835 34.3211 5.2558
760.00 1483.3028 1030.6399 34.3240 5.1967
770.00 1483.2338 1030.6963 34.3269 5.1376
780.00 1483.1648 1030.7526 34.3298 5.0784
790.00 1483.0957 1030.8090 34.3328 5.0193
800.00 1483.0267 1030.8654 34.3357 4.9602
810.00 1482.9577 1030.9218 34.3386 4.9011
820.00 1482.9213 1030.9776 34.3423 4.8500
830.00 1482.9112 1031.0330 34.3466 4.8053
840.00 1482.9012 1031.0884 34.3509 4.7607
850.00 1482.8912 1031.1438 34.3551 4.7160
860.00 1482.8811 1031.1992 34.3594 4.6714
870.00 1482.8711 1031.2546 34.3637 4.6268
880.00 1482.8610 1031.3100 34.3680 4.5821
890.00 1482.8510 1031.3654 34.3722 4.5375
900.00 1482.8410 1031.4208 34.3765 4.4928
910.00 1482.8316 1031.4762 34.3808 4.4484
920.00 1482.8483 1031.5308 34.3852 4.4105
930.00 1482.8649 1031.5853 34.3896 4.3725
940.00 1482.8816 1031.6399 34.3941 4.3346
950.00 1482.8982 1031.6945 34.3985 4.2967
960.00 1482.9149 1031.7491 34.4029 4.2588
970.00 1482.9315 1031.8037 34.4073 4.2209
980.00 1482.9482 1031.8582 34.4117 4.1829
990.00 1482.9648 1031.9128 34.4161 4.1450
1000.00 1482.9814 1031.9674 34.4205 4.1071
1010.00 1483.0005 1032.0218 34.4248 4.0699
1020.00 1483.0257 1032.0756 34.4288 4.0344
1030.00 1483.0509 1032.1295 34.4328 3.9989
1040.00 1483.0761 1032.1834 34.4368 3.9634
1050.00 1483.1013 1032.2373 34.4408 3.9279
1060.00 1483.1264 1032.2911 34.4448 3.8925
1070.00 1483.1516 1032.3450 34.4488 3.8570
1080.00 1483.1768 1032.3989 34.4528 3.8215
1090.00 1483.2020 1032.4528 34.4568 3.7860
1100.00 1483.2272 1032.5067 34.4608 3.7505
1110.00 1483.2541 1032.5602 34.4645 3.7156
1120.00 1483.2837 1032.6134 34.4679 3.6816
1130.00 1483.3132 1032.6666 34.4713 3.6476
1140.00 1483.3428 1032.7197 34.4747 3.6135
1150.00 1483.3723 1032.7729 34.4780 3.5795
1160.00 1483.4018 1032.8261 34.4814 3.5455
1170.00 1483.4314 1032.8792 34.4848 3.5114
1180.00 1483.4609 1032.9324 34.4882 3.4774
1190.00 1483.4905 1032.9856 34.4916 3.4434
1200.00 1483.5200 1033.0387 34.4949 3.4093
1210.00 1483.5550 1033.0915 34.4980 3.3768
1220.00 1483.5967 1033.1437 34.5008 3.3460
1230.00 1483.6384 1033.1959 34.5035 3.3152
1240.00 1483.6802 1033.2481 34.5062 3.2844
1250.00 1483.7219 1033.3003 34.5089 3.2536
1260.00 1483.7636 1033.3525 34.5117 3.2228
1270.00 1483.8053 1033.4047 34.5144 3.1920
1280.00 1483.8471 1033.4568 34.5171 3.1612
1290.00 1483.8888 1033.5090 34.5198 3.1305
1300.00 1483.9305 1033.5612 34.5225 3.0997
1310.00 1483.9797 1033.6130 34.5251 3.0707
1320.00 1484.0412 1033.6642 34.5272 3.0448
1330.00 1484.1026 1033.7153 34.5294 3.0189
1340.00 1484.1641 1033.7664 34.5316 2.9930
1350.00 1484.2255 1033.8175 34.5337 2.9670
1360.00 1484.2870 1033.8686 34.5359 2.9411
1370.00 1484.3484 1033.9198 34.5381 2.9152
1380.00 1484.4099 1033.9709 34.5403 2.8893
1390.00 1484.4714 1034.0220 34.5424 2.8634
1400.00 1484.5328 1034.0731 34.5446 2.8374
1410.00 1484.5959 1034.1242 34.5467 2.8119
1420.00 1484.6772 1034.1745 34.5486 2.7907
1430.00 1484.7584 1034.2247 34.5505 2.7695
1440.00 1484.8396 1034.2750 34.5524 2.7483
1450.00 1484.9209 1034.3253 34.5543 2.7270
1460.00 1485.0021 1034.3756 34.5561 2.7058
1470.00 1485.0834 1034.4258 34.5580 2.6846
1480.00 1485.1646 1034.4761 34.5599 2.6634
1490.00 1485.2458 1034.5264 34.5618 2.6422
1500.00 1485.3271 1034.5767 34.5637 2.6209
1510.00 1485.4083 1034.6269 34.5655 2.5997
1520.00 1485.4950 1034.6770 34.5674 2.5797
1530.00 1485.5949 1034.7266 34.5691 2.5629
1540.00 1485.6949 1034.7761 34.5708 2.5460
1550.00 1485.7949 1034.8257 34.5725 2.5291
1560.00 1485.8949 1034.8752 34.5742 2.5122
1570.00 1485.9948 1034.9248 34.5759 2.4953
1580.00 1486.0948 1034.9743 34.5776 2.4785
1590.00 1486.1948 1035.0239 34.5794 2.4616
1600.00 1486.2947 1035.0735 34.5811 2.4447
1610.00 1486.3947 1035.1230 34.5828 2.4278
1620.00 1486.4947 1035.1726 34.5845 2.4109
1630.00 1486.5946 1035.2221 34.5862 2.3941
1640.00 1486.7047 1035.2712 34.5878 2.3795
1650.00 1486.8221 1035.3201 34.5893 2.3666
1660.00 1486.9394 1035.3689 34.5907 2.3537
1670.00 1487.0568 1035.4177 34.5922 2.3408
1680.00 1487.1741 1035.4666 34.5937 2.3279
1690.00 1487.2915 1035.5154 34.5952 2.3150
1700.00 1487.4088 1035.5642 34.5967 2.3021
1710.00 1487.5262 1035.6130 34.5981 2.2892
1720.00 1487.6435 1035.6619 34.5996 2.2763
1730.00 1487.7609 1035.7107 34.6011 2.2634
1740.00 1487.8782 1035.7595 34.6026 2.2505
1750.00 1487.9956 1035.8083 34.6040 2.2376
1760.00 1488.1129 1035.8572 34.6055 2.2247
1770.00 1488.2369 1035.9057 34.6068 2.2133
1780.00 1488.3680 1035.9538 34.6080 2.2035
1790.00 1488.4990 1036.0019 34.6092 2.1937
1800.00 1488.6301 1036.0501 34.6103 2.1839
1810.00 1488.7611 1036.0982 34.6115 2.1741
1820.00 1488.8922 1036.1463 34.6127 2.1643
1830.00 1489.0232 1036.1944 34.6138 2.1545
1840.00 1489.1543 1036.2426 34.6150 2.1447
1850.00 1489.2853 1036.2907 34.6162 2.1350
1860.00 1489.4164 1036.3388 34.6173 2.1252
1870.00 1489.5474 1036.3870 34.6185 2.1154
1880.00 1489.6785 1036.4351 34.6197 2.1056
1890.00 1489.8095 1036.4832 34.6209 2.0958
1900.00 1489.9406 1036.5314 34.6220 2.0860
1910.00 1490.0716 1036.5795 34.6232 2.0762
1920.00 1490.2082 1036.6273 34.6242 2.0676
1930.00 1490.3486 1036.6748 34.6251 2.0599
1940.00 1490.4891 1036.7224 34.6259 2.0522
1950.00 1490.6295 1036.7700 34.6268 2.0445
1960.00 1490.7700 1036.8175 34.6277 2.0368
1970.00 1490.9104 1036.8651 34.6286 2.0291
1980.00 1491.0509 1036.9126 34.6295 2.0214
1990.00 1491.1913 1036.9602 34.6303 2.0136
2000.00 1491.3317 1037.0077 34.6312 2.0059
2010.00 1491.4722 1037.0553 34.6321 1.9982
2020.00 1491.6126 1037.1029 34.6330 1.9905
2030.00 1491.7531 1037.1504 34.6339 1.9828
2040.00 1491.8935 1037.1980 34.6347 1.9751
2050.00 1492.0340 1037.2455 34.6356 1.9674
2060.00 1492.1744 1037.2931 34.6365 1.9597
2070.00 1492.3149 1037.3407 34.6374 1.9520
2080.00 1492.4553 1037.3882 34.6383 1.9442
2090.00 1492.5996 1037.4355 34.6390 1.9373
2100.00 1492.7464 1037.4826 34.6396 1.9310
2110.00 1492.8933 1037.5297 34.6403 1.9246
2120.00 1493.0402 1037.5768 34.6409 1.9183
2130.00 1493.1871 1037.6239 34.6416 1.9119
2140.00 1493.3339 1037.6710 34.6422 1.9056
2150.00 1493.4808 1037.7181 34.6429 1.8992
2160.00 1493.6277 1037.7652 34.6435 1.8929
2170.00 1493.7746 1037.8123 34.6442 1.8865
2180.00 1493.9214 1037.8594 34.6448 1.8802
2190.00 1494.0683 1037.9065 34.6455 1.8738
2200.00 1494.2152 1037.9536 34.6461 1.8675
2210.00 1494.3621 1038.0007 34.6468 1.8611
2220.00 1494.5089 1038.0478 34.6474 1.8548
2230.00 1494.6558 1038.0949 34.6481 1.8484
2240.00 1494.8027 1038.1420 34.6487 1.8421
2250.00 1494.9495 1038.1892 34.6494 1.8357
2260.00 1495.0964 1038.2363 34.6500 1.8294
2270.00 1495.2433 1038.2834 34.6507 1.8230
2280.00 1495.3919 1038.3303 34.6512 1.8170
2290.00 1495.5435 1038.3771 34.6517 1.8116
2300.00 1495.6950 1038.4238 34.6522 1.8062
2310.00 1495.8466 1038.4705 34.6527 1.8007
2320.00 1495.9981 1038.5172 34.6532 1.7953
2330.00 1496.1497 1038.5640 34.6536 1.7899
2340.00 1496.3012 1038.6107 34.6541 1.7844
2350.00 1496.4528 1038.6574 34.6546 1.7790
2360.00 1496.6043 1038.7042 34.6551 1.7736
2370.00 1496.7559 1038.7509 34.6556 1.7681
2380.00 1496.9074 1038.7976 34.6560 1.7627
2390.00 1497.0590 1038.8444 34.6565 1.7573
2400.00 1497.2105 1038.8911 34.6570 1.7518
2410.00 1497.3621 1038.9378 34.6575 1.7464
2420.00 1497.5136 1038.9846 34.6579 1.7410
2430.00 1497.6651 1039.0313 34.6584 1.7355
2440.00 1497.8167 1039.0780 34.6589 1.7301
2450.00 1497.9682 1039.1248 34.6594 1.7247
2460.00 1498.1198 1039.1715 34.6599 1.7192
2470.00 1498.2713 1039.2182 34.6603 1.7138
2480.00 1498.4229 1039.2650 34.6608 1.7084
2490.00 1498.5744 1039.3117 34.6613 1.7029
2500.00 1498.7291 1039.3582 34.6617 1.6980
2510.00 1498.8843 1039.4046 34.6620 1.6932
2520.00 1499.0394 1039.4510 34.6624 1.6884
2530.00 1499.1945 1039.4974 34.6628 1.6836
2540.00 1499.3497 1039.5438 34.6631 1.6788
2550.00 1499.5048 1039.5903 34.6635 1.6740
2560.00 1499.6600 1039.6367 34.6639 1.6692
2570.00 1499.8151 1039.6831 34.6642 1.6644
2580.00 1499.9703 1039.7295 34.6646 1.6596
2590.00 1500.1254 1039.7760 34.6650 1.6548
2600.00 1500.2805 1039.8224 34.6653 1.6500
2610.00 1500.4357 1039.8688 34.6657 1.6452
2620.00 1500.5908 1039.9152 34.6661 1.6404
2630.00 1500.7460 1039.9617 34.6664 1.6356
2640.00 1500.9011 1040.0081 34.6668 1.6308
2650.00 1501.0562 1040.0545 34.6672 1.6260
2660.00 1501.2114 1040.1009 34.6675 1.6212
2670.00 1501.3665 1040.1474 34.6679 1.6164
2680.00 1501.5217 1040.1938 34.6683 1.6116
2690.00 1501.6768 1040.2402 34.6686 1.6068
2700.00 1501.8319 1040.2866 34.6690 1.6020
2710.00 1501.9871 1040.3330 34.6694 1.5972
2720.00 1502.1422 1040.3795 34.6697 1.5924
2730.00 1502.2976 1040.4259 34.6701 1.5876
2740.00 1502.4553 1040.4720 34.6704 1.5832
2750.00 1502.6131 1040.5182 34.6707 1.5787
2760.00 1502.7708 1040.5644 34.6710 1.5743
2770.00 1502.9286 1040.6106 34.6713 1.5699
2780.00 1503.0863 1040.6567 34.6716 1.5655
2790.00 1503.2441 1040.7029 34.6719 1.5610
2800.00 1503.4019 1040.7491 34.6722 1.5566
2810.00 1503.5596 1040.7952 34.6725 1.5522
2820.00 1503.7174 1040.8414 34.6728 1.5477
2830.00 1503.8751 1040.8876 34.6731 1.5433
2840.00 1504.0329 1040.9338 34.6734 1.5389
2850.00 1504.1906 1040.9799 34.6737 1.5344
2860.00 1504.3484 1041.0261 34.6740 1.5300
2870.00 1504.5061 1041.0723 34.6743 1.5256
2880.00 1504.6639 1041.1184 34.6746 1.5211
2890.00 1504.8217 1041.1646 34.6749 1.5167
2900.00 1504.9794 1041.2108 34.6752 1.5123
2910.00 1505.1372 1041.2570 34.6755 1.5079
2920.00 1505.2949 1041.3031 34.6758 1.5034
2930.00 1505.4527 1041.3493 34.6761 1.4990
2940.00 1505.6104 1041.3955 34.6764 1.4946
2950.00 1505.7682 1041.4416 34.6767 1.4901
2960.00 1505.9260 1041.4878 34.6770 1.4857
2970.00 1506.0837 1041.5340 34.6773 1.4813
2980.00 1506.2415 1041.5802 34.6776 1.4768
2990.00 1506.3992 1041.6263 34.6779 1.4724
3000.00 1506.5596 1041.6723 34.6782 1.4683
3010.00 1506.7200 1041.7182 34.6784 1.4642
3020.00 1506.8804 1041.7641 34.6787 1.4602
3030.00 1507.0408 1041.8100 34.6790 1.4561
3040.00 1507.2012 1041.8560 34.6792 1.4520
3050.00 1507.3616 1041.9019 34.6795 1.4479
3060.00 1507.5220 1041.9478 34.6798 1.4438
3070.00 1507.6824 1041.9938 34.6800 1.4397
3080.00 1507.8428 1042.0397 34.6803 1.4357
3090.00 1508.0032 1042.0856 34.6806 1.4316
3100.00 1508.1636 1042.1315 34.6808 1.4275
3110.00 1508.3239 1042.1775 34.6811 1.4234
3120.00 1508.4843 1042.2234 34.6814 1.4193
3130.00 1508.6447 1042.2693 34.6816 1.4152
3140.00 1508.8051 1042.3152 34.6819 1.4112
3150.00 1508.9655 1042.3612 34.6822 1.4071
3160.00 1509.1259 1042.4071 34.6824 1.4030
3170.00 1509.2863 1042.4530 34.6827 1.3989
3180.00 1509.4467 1042.4990 34.6829 1.3948
3190.00 1509.6071 1042.5449 34.6832 1.3907
3200.00 1509.7675 1042.5908 34.6835 1.3867
3210.00 1509.9279 1042.6367 34.6837 1.3826
3220.00 1510.0883 1042.6827 34.6840 1.3785
3230.00 1510.2487 1042.7286 34.6843 1.3744
3240.00 1510.4091 1042.7745 34.6845 1.3703
3250.00 1510.5695 1042.8204 34.6848 1.3662
3260.00 1510.7299 1042.8664 34.6851 1.3622
3270.00 1510.8903 1042.9123 34.6853 1.3581
3280.00 1511.0516 1042.9581 34.6856 1.3540
3290.00 1511.2136 1043.0039 34.6859 1.3500
3300.00 1511.3756 1043.0496 34.6861 1.3460
3310.00 1511.5376 1043.0953 34.6864 1.3420
3320.00 1511.6996 1043.1411 34.6867 1.3380
3330.00 1511.8616 1043.1868 34.6869 1.3340
3340.00 1512.0236 1043.2325 34.6872 1.3300
3350.00 1512.1855 1043.2783 34.6875 1.3260
3360.00 1512.3475 1043.3240 34.6877 1.3220
3370.00 1512.5095 1043.3697 34.6880 1.3180
3380.00 1512.6715 1043.4155 34.6883 1.3140
3390.00 1512.8335 1043.4612 34.6885 1.3100
3400.00 1512.9955 1043.5070 34.6888 1.3060
3410.00 1513.1574 1043.5527 34.6891 1.3020
3420.00 1513.3194 1043.5984 34.6893 1.2980
3430.00 1513.4814 1043.6442 34.6896 1.2940
3440.00 1513.6434 1043.6899 34.6899 1.2900
3450.00 1513.8054 1043.7356 34.6901 1.2860
3460.00 1513.9674 1043.7814 34.6904 1.2820
3470.00 1514.1294 1043.8271 34.6907 1.2780
3480.00 1514.2913 1043.8728 34.6909 1.2740
3490.00 1514.4533 1043.9186 34.6912 1.2700
3500.00 1514.6153 1043.9643 34.6915 1.2660
3510.00 1514.7773 1044.0100 34.6917 1.2620
3520.00 1514.9393 1044.0558 34.6920 1.2580
3530.00 1515.1013 1044.1015 34.6923 1.2540
3540.00 1515.2632 1044.1473 34.6925 1.2500
3550.00 1515.4252 1044.1930 34.6928 1.2460
3560.00 1515.5872 1044.2387 34.6931 1.2420
3570.00 1515.7492 1044.2845 34.6933 1.2380
3580.00 1515.9112 1044.3302 34.6936 1.2340
3590.00 1516.0801 1044.3755 34.6938 1.2313
3600.00 1516.2500 1044.4207 34.6940 1.2288
3610.00 1516.4199 1044.4659 34.6941 1.2263
3620.00 1516.5898 1044.5111 34.6943 1.2238
3630.00 1516.7597 1044.5563 34.6945 1.2213
3640.00 1516.9296 1044.6015 34.6946 1.2188
3650.00 1517.0995 1044.6467 34.6948 1.2163
3660.00 1517.2694 1044.6920 34.6950 1.2138
3670.00 1517.4393 1044.7372 34.6951 1.2113
3680.00 1517.6092 1044.7824 34.6953 1.2088
3690.00 1517.7791 1044.8276 34.6955 1.2063
3700.00 1517.9491 1044.8728 34.6957 1.2038
3710.00 1518.1190 1044.9180 34.6958 1.2013
3720.00 1518.2889 1044.9632 34.6960 1.1988
3730.00 1518.4588 1045.0084 34.6962 1.1963
3740.00 1518.6287 1045.0536 34.6963 1.1938
3750.00 1518.7986 1045.0989 34.6965 1.1913
3760.00 1518.9685 1045.1441 34.6967 1.1888
3770.00 1519.1384 1045.1893 34.6968 1.1863
3780.00 1519.3083 1045.2345 34.6970 1.1838
3790.00 1519.4782 1045.2797 34.6972 1.1813
3800.00 1519.6481 1045.3249 34.6974 1.1788
3810.00 1519.8180 1045.3701 34.6975 1.1763
3820.00 1519.9879 1045.4153 34.6977 1.1737
3830.00 1520.1578 1045.4605 34.6979 1.1712
3840.00 1520.3277 1045.5058 34.6980 1.1687
3850.00 1520.4976 1045.5510 34.6982 1.1662
3860.00 1520.6675 1045.5962 34.6984 1.1637
3870.00 1520.8374 1045.6414 34.6985 1.1612
3880.00 1521.0073 1045.6866 34.6987 1.1587
3890.00 1521.1772 1045.7318 34.6989 1.1562
3900.00 1521.3471 1045.7770 34.6991 1.1537
3910.00 1521.5171 1045.8222 34.6992 1.1512
3920.00 1521.6859 1045.8675 34.6994 1.1481
3930.00 1521.8681 1045.9119 34.6994 1.1481
3940.00 1522.0503 1045.9563 34.6994 1.1481
3950.00 1522.2326 1046.0007 34.6994 1.1481
3960.00 1522.4148 1046.0451 34.6994 1.1481
3970.00 1522.5971 1046.0895 34.6994 1.1481
3980.00 1522.7793 1046.1339 34.6994 1.1481
3990.00 1522.9616 1046.1783 34.6994 1.1481
4000.00 1523.1438 1046.2228 34.6994 1.1481
4010.00 1523.3260 1046.2672 34.6994 1.1481
4020.00 1523.5083 1046.3116 34.6994 1.1481
4030.00 1523.6905 1046.3560 34.6994 1.1481
4040.00 1523.8728 1046.4004 34.6994 1.1481
4050.00 1524.0550 1046.4448 34.6994 1.1481
4060.00 1524.2373 1046.4892 34.6994 1.1481
4070.00 1524.4195 1046.5336 34.6994 1.1481
4080.00 1524.6017 1046.5780 34.6994 1.1481
4090.00 1524.7840 1046.6224 34.6994 1.1481
4100.00 1524.9662 1046.6668 34.6994 1.1481
4110.00 1525.1485 1046.7112 34.6994 1.1481
