# Averages over distance (i) for each depth (k):
# Depth(m) Speed(m/s) Density(kg/m^3) Salt PSU Theta(degC)
0.00 1543.3586 1022.6352 35.6127 28.6687
10.00 1543.5032 1022.6828 35.6133 28.6562
20.00 1543.6494 1022.7314 35.6151 28.6438
30.00 1543.7885 1022.7850 35.6213 28.6258
40.00 1543.8976 1022.8497 35.6343 28.5900
50.00 1543.9530 1022.9293 35.6545 28.5256
60.00 1543.9440 1023.0245 35.6808 28.4279
70.00 1543.8707 1023.1369 35.7152 28.2965
80.00 1543.7215 1023.2724 35.7624 28.1239
90.00 1543.4575 1023.4417 35.8281 27.8899
100.00 1542.9941 1023.6604 35.9163 27.5554
110.00 1542.1931 1023.9436 36.0238 27.0635
120.00 1541.0074 1024.2763 36.1307 26.4098
130.00 1539.5935 1024.6083 36.2098 25.6828
140.00 1538.1551 1024.8986 36.2478 24.9793
150.00 1536.7662 1025.1191 36.2265 24.3433
160.00 1535.2031 1025.3255 36.1737 23.6640
170.00 1533.4993 1025.5205 36.0953 22.9498
180.00 1531.2592 1025.7261 35.9807 22.0742
190.00 1528.8498 1025.9350 35.8548 21.1478
200.00 1526.1683 1026.1461 35.7243 20.1610
210.00 1523.2419 1026.3590 35.5899 19.1201
220.00 1520.3154 1026.5720 35.4554 18.0791
230.00 1517.5501 1026.7596 35.3459 17.1422
240.00 1514.8445 1026.9379 35.2457 16.2440
250.00 1512.1390 1027.1161 35.1454 15.3458
260.00 1509.6282 1027.2822 35.0563 14.5192
270.00 1507.6925 1027.4121 35.0001 13.9038
280.00 1505.7569 1027.5420 34.9439 13.2884
290.00 1503.8212 1027.6719 34.8876 12.6731
300.00 1501.8914 1027.8015 34.8316 12.0595
310.00 1500.7870 1027.8942 34.8067 11.7049
320.00 1499.6827 1027.9868 34.7819 11.3503
330.00 1498.5783 1028.0795 34.7570 10.9956
340.00 1497.4740 1028.1721 34.7321 10.6410
350.00 1496.3696 1028.2648 34.7073 10.2864
360.00 1495.7747 1028.3381 34.6964 10.0794
370.00 1495.2170 1028.4101 34.6866 9.8832
380.00 1494.6592 1028.4821 34.6767 9.6871
390.00 1494.1015 1028.5540 34.6669 9.4909
400.00 1493.5437 1028.6260 34.6571 9.2947
410.00 1492.9875 1028.6979 34.6473 9.0989
420.00 1492.6418 1028.7614 34.6417 8.9633
430.00 1492.2962 1028.8250 34.6361 8.8276
440.00 1491.9505 1028.8886 34.6306 8.6919
450.00 1491.6048 1028.9522 34.6250 8.5563
460.00 1491.2592 1029.0157 34.6194 8.4206
470.00 1490.9135 1029.0793 34.6139 8.2850
480.00 1490.5878 1029.1420 34.6086 8.1552
490.00 1490.3212 1029.2021 34.6044 8.0428
500.00 1490.0546 1029.2621 34.6002 7.9304
510.00 1489.7880 1029.3222 34.5960 7.8180
520.00 1489.5214 1029.3822 34.5918 7.7056
530.00 1489.2548 1029.4423 34.5875 7.5932
540.00 1488.9882 1029.5023 34.5833 7.4808
550.00 1488.7215 1029.5624 34.5791 7.3684
560.00 1488.5034 1029.6206 34.5758 7.2698
570.00 1488.3034 1029.6782 34.5729 7.1764
580.00 1488.1033 1029.7357 34.5699 7.0829
590.00 1487.9032 1029.7933 34.5670 6.9894
600.00 1487.7031 1029.8509 34.5641 6.8959
610.00 1487.5030 1029.9084 34.5611 6.8025
620.00 1487.3030 1029.9660 34.5582 6.7090
630.00 1487.1029 1030.0235 34.5552 6.6155
640.00 1486.9356 1030.0801 34.5530 6.5310
650.00 1486.7977 1030.1358 34.5513 6.4544
660.00 1486.6598 1030.1915 34.5497 6.3778
670.00 1486.5220 1030.2471 34.5480 6.3013
680.00 1486.3841 1030.3028 34.5464 6.2247
690.00 1486.2462 1030.3585 34.5447 6.1481
700.00 1486.1084 1030.4142 34.5431 6.0716
710.00 1485.9705 1030.4699 34.5414 5.9950
720.00 1485.8326 1030.5255 34.5398 5.9185
730.00 1485.7342 1030.5802 34.5390 5.8523
740.00 1485.6482 1030.6345 34.5384 5.7894
750.00 1485.5623 1030.6888 34.5378 5.7265
760.00 1485.4763 1030.7431 34.5372 5.6637
770.00 1485.3903 1030.7975 34.5367 5.6008
780.00 1485.3043 1030.8518 34.5361 5.5379
790.00 1485.2184 1030.9061 34.5355 5.4750
800.00 1485.1324 1030.9604 34.5349 5.4121
810.00 1485.0464 1031.0147 34.5344 5.3493
820.00 1484.9822 1031.0685 34.5342 5.2920
830.00 1484.9356 1031.1218 34.5343 5.2393
840.00 1484.8890 1031.1752 34.5345 5.1866
850.00 1484.8424 1031.2285 34.5347 5.1339
860.00 1484.7958 1031.2818 34.5348 5.0813
870.00 1484.7492 1031.3352 34.5350 5.0286
880.00 1484.7026 1031.3885 34.5352 4.9759
890.00 1484.6561 1031.4418 34.5353 4.9232
900.00 1484.6095 1031.4952 34.5355 4.8705
910.00 1484.5636 1031.5485 34.5357 4.8180
920.00 1484.5461 1031.6010 34.5363 4.7728
930.00 1484.5286 1031.6536 34.5369 4.7275
940.00 1484.5110 1031.7061 34.5375 4.6823
950.00 1484.4935 1031.7587 34.5381 4.6371
960.00 1484.4760 1031.8113 34.5387 4.5918
970.00 1484.4584 1031.8638 34.5392 4.5466
980.00 1484.4409 1031.9164 34.5398 4.5013
990.00 1484.4234 1031.9689 34.5404 4.4561
1000.00 1484.4059 1032.0215 34.5410 4.4109
1010.00 1484.3947 1032.0739 34.5417 4.3672
1020.00 1484.3996 1032.1258 34.5425 4.3277
1030.00 1484.4045 1032.1777 34.5434 4.2881
1040.00 1484.4093 1032.2297 34.5442 4.2486
1050.00 1484.4142 1032.2816 34.5451 4.2090
1060.00 1484.4191 1032.3335 34.5459 4.1695
1070.00 1484.4240 1032.3855 34.5467 4.1299
1080.00 1484.4289 1032.4374 34.5476 4.0903
1090.00 1484.4337 1032.4893 34.5484 4.0508
1100.00 1484.4386 1032.5412 34.5492 4.0112
1110.00 1484.4511 1032.5930 34.5501 3.9736
1120.00 1484.4745 1032.6443 34.5511 3.9386
1130.00 1484.4978 1032.6957 34.5521 3.9037
1140.00 1484.5212 1032.7471 34.5531 3.8688
1150.00 1484.5446 1032.7985 34.5541 3.8338
1160.00 1484.5680 1032.8499 34.5551 3.7989
1170.00 1484.5913 1032.9013 34.5561 3.7640
1180.00 1484.6147 1032.9527 34.5571 3.7290
1190.00 1484.6381 1033.0041 34.5581 3.6941
1200.00 1484.6615 1033.0555 34.5591 3.6592
1210.00 1484.6922 1033.1067 34.5601 3.6260
1220.00 1484.7320 1033.1576 34.5612 3.5951
1230.00 1484.7718 1033.2085 34.5623 3.5642
1240.00 1484.8117 1033.2594 34.5634 3.5333
1250.00 1484.8515 1033.3104 34.5645 3.5024
1260.00 1484.8913 1033.3613 34.5656 3.4715
1270.00 1484.9311 1033.4122 34.5667 3.4406
1280.00 1484.9710 1033.4631 34.5678 3.4097
1290.00 1485.0108 1033.5140 34.5689 3.3788
1300.00 1485.0506 1033.5650 34.5700 3.3479
1310.00 1485.0963 1033.6157 34.5711 3.3185
1320.00 1485.1516 1033.6662 34.5723 3.2913
1330.00 1485.2070 1033.7166 34.5735 3.2641
1340.00 1485.2623 1033.7671 34.5746 3.2369
1350.00 1485.3176 1033.8176 34.5758 3.2098
1360.00 1485.3730 1033.8680 34.5770 3.1826
1370.00 1485.4283 1033.9185 34.5782 3.1554
1380.00 1485.4836 1033.9690 34.5793 3.1283
1390.00 1485.5389 1034.0195 34.5805 3.1011
1400.00 1485.5943 1034.0699 34.5817 3.0739
1410.00 1485.6509 1034.1203 34.5828 3.0471
1420.00 1485.7218 1034.1703 34.5840 3.0236
1430.00 1485.7927 1034.2203 34.5852 3.0001
1440.00 1485.8635 1034.2703 34.5864 2.9766
1450.00 1485.9344 1034.3202 34.5875 2.9531
1460.00 1486.0053 1034.3702 34.5887 2.9296
1470.00 1486.0762 1034.4202 34.5899 2.9061
1480.00 1486.1470 1034.4701 34.5911 2.8826
1490.00 1486.2179 1034.5201 34.5922 2.8592
1500.00 1486.2888 1034.5701 34.5934 2.8357
1510.00 1486.3597 1034.6201 34.5946 2.8122
1520.00 1486.4352 1034.6699 34.5957 2.7898
1530.00 1486.5220 1034.7193 34.5968 2.7700
1540.00 1486.6088 1034.7687 34.5979 2.7502
1550.00 1486.6956 1034.8181 34.5991 2.7305
1560.00 1486.7824 1034.8675 34.6002 2.7107
1570.00 1486.8692 1034.9169 34.6013 2.6909
1580.00 1486.9560 1034.9663 34.6024 2.6712
1590.00 1487.0428 1035.0157 34.6035 2.6514
1600.00 1487.1296 1035.0651 34.6046 2.6316
1610.00 1487.2164 1035.1145 34.6057 2.6118
1620.00 1487.3032 1035.1639 34.6068 2.5921
1630.00 1487.3900 1035.2133 34.6079 2.5723
1640.00 1487.4859 1035.2623 34.6090 2.5546
1650.00 1487.5884 1035.3111 34.6099 2.5385
1660.00 1487.6909 1035.3599 34.6109 2.5223
1670.00 1487.7934 1035.4087 34.6119 2.5062
1680.00 1487.8959 1035.4575 34.6129 2.4900
1690.00 1487.9983 1035.5063 34.6139 2.4738
1700.00 1488.1008 1035.5552 34.6148 2.4577
1710.00 1488.2033 1035.6040 34.6158 2.4415
1720.00 1488.3058 1035.6528 34.6168 2.4254
1730.00 1488.4083 1035.7016 34.6178 2.4092
1740.00 1488.5108 1035.7504 34.6187 2.3930
1750.00 1488.6133 1035.7992 34.6197 2.3769
1760.00 1488.7157 1035.8480 34.6207 2.3607
1770.00 1488.8251 1035.8965 34.6216 2.3461
1780.00 1488.9419 1035.9447 34.6224 2.3332
1790.00 1489.0586 1035.9929 34.6232 2.3203
1800.00 1489.1753 1036.0412 34.6241 2.3073
1810.00 1489.2920 1036.0894 34.6249 2.2944
1820.00 1489.4087 1036.1376 34.6257 2.2815
1830.00 1489.5254 1036.1858 34.6265 2.2685
1840.00 1489.6421 1036.2340 34.6274 2.2556
1850.00 1489.7589 1036.2823 34.6282 2.2426
1860.00 1489.8756 1036.3305 34.6290 2.2297
1870.00 1489.9923 1036.3787 34.6298 2.2168
1880.00 1490.1090 1036.4269 34.6306 2.2038
1890.00 1490.2257 1036.4751 34.6315 2.1909
1900.00 1490.3424 1036.5233 34.6323 2.1780
1910.00 1490.4591 1036.5716 34.6331 2.1650
1920.00 1490.5829 1036.6195 34.6338 2.1537
1930.00 1490.7116 1036.6672 34.6345 2.1434
1940.00 1490.8404 1036.7148 34.6351 2.1331
1950.00 1490.9691 1036.7625 34.6358 2.1229
1960.00 1491.0979 1036.8102 34.6365 2.1126
1970.00 1491.2266 1036.8579 34.6371 2.1023
1980.00 1491.3553 1036.9056 34.6378 2.0920
1990.00 1491.4841 1036.9533 34.6385 2.0818
2000.00 1491.6128 1037.0010 34.6391 2.0715
2010.00 1491.7416 1037.0486 34.6398 2.0612
2020.00 1491.8703 1037.0963 34.6405 2.0510
2030.00 1491.9990 1037.1440 34.6411 2.0407
2040.00 1492.1278 1037.1917 34.6418 2.0304
2050.00 1492.2565 1037.2394 34.6424 2.0202
2060.00 1492.3853 1037.2871 34.6431 2.0099
2070.00 1492.5140 1037.3348 34.6438 1.9996
2080.00 1492.6428 1037.3825 34.6444 1.9893
2090.00 1492.7772 1037.4299 34.6450 1.9803
2100.00 1492.9156 1037.4771 34.6455 1.9721
2110.00 1493.0540 1037.5243 34.6460 1.9639
2120.00 1493.1923 1037.5715 34.6466 1.9557
2130.00 1493.3307 1037.6187 34.6471 1.9475
2140.00 1493.4691 1037.6660 34.6476 1.9393
2150.00 1493.6074 1037.7132 34.6481 1.9311
2160.00 1493.7458 1037.7604 34.6487 1.9229
2170.00 1493.8842 1037.8076 34.6492 1.9147
2180.00 1494.0225 1037.8548 34.6497 1.9065
2190.00 1494.1609 1037.9021 34.6502 1.8983
2200.00 1494.2993 1037.9493 34.6507 1.8901
2210.00 1494.4376 1037.9965 34.6513 1.8819
2220.00 1494.5760 1038.0437 34.6518 1.8737
2230.00 1494.7144 1038.0909 34.6523 1.8655
2240.00 1494.8527 1038.1382 34.6528 1.8573
2250.00 1494.9911 1038.1854 34.6533 1.8491
2260.00 1495.1295 1038.2326 34.6539 1.8409
2270.00 1495.2678 1038.2798 34.6544 1.8327
2280.00 1495.4090 1038.3269 34.6549 1.8251
2290.00 1495.5550 1038.3737 34.6553 1.8185
2300.00 1495.7009 1038.4205 34.6557 1.8118
2310.00 1495.8468 1038.4673 34.6561 1.8052
2320.00 1495.9927 1038.5141 34.6565 1.7986
2330.00 1496.1387 1038.5609 34.6569 1.7919
2340.00 1496.2846 1038.6078 34.6573 1.7853
2350.00 1496.4305 1038.6546 34.6577 1.7786
2360.00 1496.5764 1038.7014 34.6581 1.7720
2370.00 1496.7224 1038.7482 34.6585 1.7654
2380.00 1496.8683 1038.7950 34.6589 1.7587
2390.00 1497.0142 1038.8418 34.6593 1.7521
2400.00 1497.1601 1038.8886 34.6597 1.7454
2410.00 1497.3061 1038.9354 34.6601 1.7388
2420.00 1497.4520 1038.9823 34.6605 1.7322
2430.00 1497.5979 1039.0291 34.6609 1.7255
2440.00 1497.7438 1039.0759 34.6613 1.7189
2450.00 1497.8898 1039.1227 34.6617 1.7122
2460.00 1498.0357 1039.1695 34.6621 1.7056
2470.00 1498.1816 1039.2163 34.6625 1.6990
2480.00 1498.3275 1039.2631 34.6629 1.6923
2490.00 1498.4735 1039.3099 34.6633 1.6857
2500.00 1498.6247 1039.3564 34.6636 1.6801
2510.00 1498.7767 1039.4029 34.6639 1.6746
2520.00 1498.9288 1039.4493 34.6642 1.6692
2530.00 1499.0808 1039.4958 34.6645 1.6637
2540.00 1499.2328 1039.5422 34.6648 1.6583
2550.00 1499.3848 1039.5887 34.6652 1.6528
2560.00 1499.5368 1039.6351 34.6655 1.6474
2570.00 1499.6889 1039.6816 34.6658 1.6419
2580.00 1499.8409 1039.7280 34.6661 1.6365
2590.00 1499.9929 1039.7745 34.6664 1.6310
2600.00 1500.1449 1039.8209 34.6667 1.6256
2610.00 1500.2970 1039.8674 34.6670 1.6201
2620.00 1500.4490 1039.9138 34.6673 1.6147
2630.00 1500.6010 1039.9603 34.6676 1.6092
2640.00 1500.7530 1040.0067 34.6679 1.6038
2650.00 1500.9050 1040.0531 34.6682 1.5983
2660.00 1501.0571 1040.0996 34.6685 1.5929
2670.00 1501.2091 1040.1460 34.6689 1.5874
2680.00 1501.3611 1040.1925 34.6692 1.5819
2690.00 1501.5131 1040.2389 34.6695 1.5765
2700.00 1501.6652 1040.2854 34.6698 1.5710
2710.00 1501.8172 1040.3318 34.6701 1.5656
2720.00 1501.9692 1040.3783 34.6704 1.5601
2730.00 1502.1216 1040.4247 34.6707 1.5548
2740.00 1502.2785 1040.4708 34.6709 1.5502
2750.00 1502.4354 1040.5170 34.6712 1.5456
2760.00 1502.5922 1040.5631 34.6714 1.5410
2770.00 1502.7491 1040.6092 34.6717 1.5365
2780.00 1502.9060 1040.6553 34.6719 1.5319
2790.00 1503.0629 1040.7015 34.6722 1.5273
2800.00 1503.2198 1040.7476 34.6724 1.5227
2810.00 1503.3767 1040.7937 34.6727 1.5182
2820.00 1503.5336 1040.8398 34.6729 1.5136
2830.00 1503.6905 1040.8860 34.6731 1.5090
2840.00 1503.8473 1040.9321 34.6734 1.5044
2850.00 1504.0042 1040.9782 34.6736 1.4998
2860.00 1504.1611 1041.0243 34.6739 1.4953
2870.00 1504.3180 1041.0705 34.6741 1.4907
2880.00 1504.4749 1041.1166 34.6744 1.4861
2890.00 1504.6318 1041.1627 34.6746 1.4815
2900.00 1504.7887 1041.2088 34.6748 1.4770
2910.00 1504.9455 1041.2550 34.6751 1.4724
2920.00 1505.1024 1041.3011 34.6753 1.4678
2930.00 1505.2593 1041.3472 34.6756 1.4632
2940.00 1505.4162 1041.3933 34.6758 1.4587
2950.00 1505.5731 1041.4395 34.6761 1.4541
2960.00 1505.7300 1041.4856 34.6763 1.4495
2970.00 1505.8869 1041.5317 34.6766 1.4449
2980.00 1506.0437 1041.5778 34.6768 1.4404
2990.00 1506.2006 1041.6240 34.6770 1.4358
3000.00 1506.3614 1041.6698 34.6772 1.4318
3010.00 1506.5222 1041.7156 34.6775 1.4279
3020.00 1506.6830 1041.7615 34.6777 1.4240
3030.00 1506.8438 1041.8073 34.6779 1.4200
3040.00 1507.0046 1041.8531 34.6781 1.4161
3050.00 1507.1655 1041.8990 34.6783 1.4121
3060.00 1507.3263 1041.9448 34.6785 1.4082
3070.00 1507.4871 1041.9906 34.6787 1.4043
3080.00 1507.6479 1042.0365 34.6789 1.4003
3090.00 1507.8088 1042.0823 34.6791 1.3964
3100.00 1507.9696 1042.1281 34.6793 1.3924
3110.00 1508.1304 1042.1740 34.6795 1.3885
3120.00 1508.2912 1042.2198 34.6797 1.3846
3130.00 1508.4520 1042.2657 34.6799 1.3806
3140.00 1508.6129 1042.3115 34.6801 1.3767
3150.00 1508.7737 1042.3573 34.6804 1.3727
3160.00 1508.9345 1042.4032 34.6806 1.3688
3170.00 1509.0953 1042.4490 34.6808 1.3649
3180.00 1509.2561 1042.4948 34.6810 1.3609
3190.00 1509.4170 1042.5407 34.6812 1.3570
3200.00 1509.5778 1042.5865 34.6814 1.3530
3210.00 1509.7386 1042.6323 34.6816 1.3491
3220.00 1509.8994 1042.6782 34.6818 1.3452
3230.00 1510.0603 1042.7240 34.6820 1.3412
3240.00 1510.2211 1042.7698 34.6822 1.3373
3250.00 1510.3819 1042.8157 34.6824 1.3333
3260.00 1510.5427 1042.8615 34.6826 1.3294
3270.00 1510.7035 1042.9073 34.6828 1.3255
3280.00 1510.8659 1042.9530 34.6830 1.3217
3290.00 1511.0293 1042.9986 34.6832 1.3181
3300.00 1511.1927 1043.0442 34.6834 1.3144
3310.00 1511.3562 1043.0898 34.6836 1.3108
3320.00 1511.5196 1043.1354 34.6838 1.3072
3330.00 1511.6831 1043.1810 34.6840 1.3036
3340.00 1511.8465 1043.2266 34.6842 1.2999
3350.00 1512.0099 1043.2722 34.6844 1.2963
3360.00 1512.1734 1043.3178 34.6846 1.2927
3370.00 1512.3368 1043.3634 34.6848 1.2890
3380.00 1512.5002 1043.4090 34.6850 1.2854
3390.00 1512.6637 1043.4546 34.6852 1.2818
3400.00 1512.8271 1043.5002 34.6854 1.2782
3410.00 1512.9905 1043.5458 34.6856 1.2745
3420.00 1513.1540 1043.5914 34.6858 1.2709
3430.00 1513.3174 1043.6370 34.6860 1.2673
3440.00 1513.4809 1043.6826 34.6862 1.2637
3450.00 1513.6443 1043.7282 34.6864 1.2600
3460.00 1513.8077 1043.7738 34.6866 1.2564
3470.00 1513.9712 1043.8193 34.6868 1.2528
3480.00 1514.1346 1043.8649 34.6870 1.2491
3490.00 1514.2980 1043.9105 34.6872 1.2455
3500.00 1514.4615 1043.9561 34.6874 1.2419
3510.00 1514.6249 1044.0017 34.6876 1.2383
3520.00 1514.7883 1044.0473 34.6878 1.2346
3530.00 1514.9518 1044.0929 34.6880 1.2310
3540.00 1515.1152 1044.1385 34.6882 1.2274
3550.00 1515.2787 1044.1841 34.6884 1.2238
3560.00 1515.4421 1044.2297 34.6886 1.2201
3570.00 1515.6055 1044.2753 34.6888 1.2165
3580.00 1515.7690 1044.3209 34.6890 1.2129
3590.00 1515.9342 1044.3663 34.6892 1.2094
3600.00 1516.0997 1044.4117 34.6894 1.2059
3610.00 1516.2653 1044.4570 34.6896 1.2025
3620.00 1516.4308 1044.5024 34.6898 1.1990
3630.00 1516.5963 1044.5478 34.6900 1.1956
3640.00 1516.7618 1044.5931 34.6902 1.1921
3650.00 1516.9273 1044.6385 34.6904 1.1887
3660.00 1517.0929 1044.6839 34.6906 1.1852
3670.00 1517.2584 1044.7293 34.6908 1.1818
3680.00 1517.4239 1044.7746 34.6910 1.1783
3690.00 1517.5894 1044.8200 34.6912 1.1749
3700.00 1517.7549 1044.8654 34.6914 1.1714
3710.00 1517.9205 1044.9107 34.6916 1.1679
3720.00 1518.0860 1044.9561 34.6918 1.1645
3730.00 1518.2515 1045.0015 34.6920 1.1610
3740.00 1518.4170 1045.0468 34.6923 1.1576
3750.00 1518.5825 1045.0922 34.6925 1.1541
3760.00 1518.7480 1045.1376 34.6927 1.1507
3770.00 1518.9136 1045.1830 34.6929 1.1472
3780.00 1519.0791 1045.2283 34.6931 1.1438
3790.00 1519.2446 1045.2737 34.6933 1.1403
3800.00 1519.4101 1045.3191 34.6935 1.1369
3810.00 1519.5756 1045.3644 34.6937 1.1334
3820.00 1519.7412 1045.4098 34.6939 1.1299
3830.00 1519.9067 1045.4552 34.6941 1.1265
3840.00 1520.0722 1045.5005 34.6943 1.1230
3850.00 1520.2377 1045.5459 34.6945 1.1196
3860.00 1520.4032 1045.5913 34.6947 1.1161
3870.00 1520.5688 1045.6366 34.6949 1.1127
3880.00 1520.7343 1045.6820 34.6951 1.1092
3890.00 1520.8998 1045.7274 34.6953 1.1058
3900.00 1521.0653 1045.7728 34.6955 1.1023
3910.00 1521.2308 1045.8181 34.6957 1.0989
3920.00 1521.3968 1045.8633 34.6959 1.0952
3930.00 1521.5629 1045.9085 34.6961 1.0916
3940.00 1521.7290 1045.9537 34.6963 1.0880
3950.00 1521.8951 1045.9989 34.6966 1.0843
3960.00 1522.0612 1046.0441 34.6968 1.0807
3970.00 1522.2273 1046.0893 34.6970 1.0771
3980.00 1522.3934 1046.1345 34.6972 1.0734
3990.00 1522.5595 1046.1797 34.6974 1.0698
4000.00 1522.7255 1046.2249 34.6977 1.0662
4010.00 1522.8916 1046.2701 34.6979 1.0625
4020.00 1523.0577 1046.3153 34.6981 1.0589
4030.00 1523.2238 1046.3605 34.6983 1.0553
4040.00 1523.3899 1046.4057 34.6985 1.0516
4050.00 1523.5560 1046.4509 34.6988 1.0480
4060.00 1523.7221 1046.4961 34.6990 1.0443
4070.00 1523.8882 1046.5413 34.6992 1.0407
4080.00 1524.0542 1046.5865 34.6994 1.0371
4090.00 1524.2203 1046.6317 34.6996 1.0334
4100.00 1524.3864 1046.6769 34.6999 1.0298
4110.00 1524.5525 1046.7221 34.7001 1.0262
4120.00 1524.7186 1046.7673 34.7003 1.0225
4130.00 1524.8847 1046.8125 34.7005 1.0189
4140.00 1525.0508 1046.8577 34.7007 1.0153
4150.00 1525.2169 1046.9029 34.7010 1.0116
4160.00 1525.3829 1046.9481 34.7012 1.0080
4170.00 1525.5490 1046.9933 34.7014 1.0044
4180.00 1525.7151 1047.0385 34.7016 1.0007
4190.00 1525.8812 1047.0837 34.7018 0.9971
4200.00 1526.0473 1047.1289 34.7021 0.9934
4210.00 1526.2134 1047.1741 34.7023 0.9898
4220.00 1526.3795 1047.2193 34.7025 0.9862
4230.00 1526.5456 1047.2645 34.7027 0.9825
4240.00 1526.7116 1047.3097 34.7029 0.9789
4250.00 1526.8777 1047.3549 34.7031 0.9753
4260.00 1527.0438 1047.4001 34.7034 0.9716
4270.00 1527.2117 1047.4451 34.7036 0.9682
4280.00 1527.3809 1047.4900 34.7038 0.9650
4290.00 1527.5501 1047.5349 34.7040 0.9617
4300.00 1527.7193 1047.5798 34.7041 0.9585
4310.00 1527.8885 1047.6247 34.7043 0.9552
4320.00 1528.0577 1047.6695 34.7045 0.9520
4330.00 1528.2269 1047.7144 34.7047 0.9487
4340.00 1528.3961 1047.7593 34.7049 0.9455
4350.00 1528.5653 1047.8042 34.7051 0.9422
4360.00 1528.7345 1047.8491 34.7053 0.9390
4370.00 1528.9037 1047.8939 34.7055 0.9357
4380.00 1529.0729 1047.9388 34.7057 0.9325
4390.00 1529.2421 1047.9837 34.7059 0.9292
4400.00 1529.4113 1048.0286 34.7060 0.9260
4410.00 1529.5805 1048.0735 34.7062 0.9227
4420.00 1529.7497 1048.1183 34.7064 0.9195
4430.00 1529.9189 1048.1632 34.7066 0.9162
4440.00 1530.0881 1048.2081 34.7068 0.9130
4450.00 1530.2573 1048.2530 34.7070 0.9097
4460.00 1530.4265 1048.2979 34.7072 0.9065
4470.00 1530.5957 1048.3428 34.7074 0.9032
4480.00 1530.7649 1048.3876 34.7076 0.9000
4490.00 1530.9341 1048.4325 34.7078 0.8967
4500.00 1531.1033 1048.4774 34.7080 0.8935
4510.00 1531.2725 1048.5223 34.7081 0.8902
4520.00 1531.4417 1048.5672 34.7083 0.8870
4530.00 1531.6109 1048.6120 34.7085 0.8837
4540.00 1531.7801 1048.6569 34.7087 0.8805
4550.00 1531.9493 1048.7018 34.7089 0.8772
4560.00 1532.1185 1048.7467 34.7091 0.8740
4570.00 1532.2877 1048.7916 34.7093 0.8707
4580.00 1532.4569 1048.8364 34.7095 0.8675
4590.00 1532.6261 1048.8813 34.7097 0.8642
4600.00 1532.7953 1048.9262 34.7099 0.8610
4610.00 1532.9645 1048.9711 34.7101 0.8577
4620.00 1533.1337 1049.0160 34.7102 0.8545
4630.00 1533.3029 1049.0608 34.7104 0.8512
4640.00 1533.4721 1049.1057 34.7106 0.8480
4650.00 1533.6540 1049.1498 34.7107 0.8473
4660.00 1533.8361 1049.1938 34.7107 0.8467
4670.00 1534.0183 1049.2378 34.7107 0.8461
4680.00 1534.2005 1049.2818 34.7108 0.8454
4690.00 1534.3827 1049.3258 34.7108 0.8448
4700.00 1534.5649 1049.3698 34.7108 0.8442
4710.00 1534.7470 1049.4138 34.7109 0.8436
4720.00 1534.9292 1049.4578 34.7109 0.8429
4730.00 1535.1114 1049.5018 34.7109 0.8423
4740.00 1535.2936 1049.5458 34.7110 0.8417
4750.00 1535.4758 1049.5898 34.7110 0.8411
4760.00 1535.6579 1049.6338 34.7110 0.8405
4770.00 1535.8401 1049.6778 34.7111 0.8398
4780.00 1536.0223 1049.7219 34.7111 0.8392
4790.00 1536.2045 1049.7659 34.7111 0.8386
4800.00 1536.3867 1049.8099 34.7112 0.8380
4810.00 1536.5689 1049.8539 34.7112 0.8373
4820.00 1536.7510 1049.8979 34.7112 0.8367
4830.00 1536.9332 1049.9419 34.7113 0.8361
4840.00 1537.1154 1049.9859 34.7113 0.8355
4850.00 1537.2976 1050.0299 34.7113 0.8349
4860.00 1537.4798 1050.0739 34.7114 0.8342
4870.00 1537.6619 1050.1179 34.7114 0.8336
4880.00 1537.8441 1050.1619 34.7114 0.8330
4890.00 1538.0263 1050.2059 34.7115 0.8324
