# Averages over distance (i) for each depth (k):
# Depth(m) Speed(m/s) Density(kg/m^3) Salt PSU Theta(degC)
0.00 1539.0743 1023.6674 36.0466 26.4993
10.00 1539.2206 1023.7149 36.0477 26.4882
20.00 1539.3584 1023.7646 36.0498 26.4727
30.00 1539.4355 1023.8267 36.0563 26.4285
40.00 1539.3338 1023.9244 36.0747 26.3002
50.00 1538.9919 1024.0702 36.1102 26.0594
60.00 1538.5012 1024.2450 36.1565 25.7508
70.00 1537.9503 1024.4278 36.2044 25.4185
80.00 1537.3348 1024.6144 36.2493 25.0636
90.00 1536.6430 1024.8014 36.2859 24.6846
100.00 1535.9043 1024.9784 36.3076 24.2976
110.00 1535.1708 1025.1359 36.3110 23.9258
120.00 1534.4764 1025.2717 36.2978 23.5817
130.00 1533.8209 1025.3898 36.2720 23.2625
140.00 1533.1851 1025.4959 36.2371 22.9582
150.00 1532.5173 1025.5917 36.1889 22.6513
160.00 1531.7618 1025.6860 36.1297 22.3183
170.00 1530.9355 1025.7790 36.0618 21.9643
180.00 1529.8165 1025.8809 35.9734 21.5160
190.00 1528.6051 1025.9855 35.8785 21.0380
200.00 1527.0976 1026.1032 35.7727 20.4682
210.00 1525.3238 1026.2327 35.6571 19.8160
220.00 1523.5500 1026.3623 35.5415 19.1638
230.00 1521.5012 1026.5036 35.4315 18.4450
240.00 1519.3501 1026.6493 35.3236 17.7015
250.00 1517.1991 1026.7950 35.2158 16.9579
260.00 1515.0641 1026.9390 35.1162 16.2299
270.00 1512.9762 1027.0780 35.0409 15.5478
280.00 1510.8883 1027.2170 34.9656 14.8657
290.00 1508.8005 1027.3560 34.8903 14.1836
300.00 1506.7157 1027.4948 34.8153 13.5026
310.00 1505.0717 1027.6122 34.7765 12.9854
320.00 1503.4277 1027.7296 34.7377 12.4682
330.00 1501.7836 1027.8470 34.6989 11.9511
340.00 1500.1396 1027.9643 34.6601 11.4339
350.00 1498.4956 1028.0817 34.6213 10.9167
360.00 1497.4447 1028.1760 34.6072 10.5824
370.00 1496.4371 1028.2685 34.5949 10.2614
380.00 1495.4295 1028.3610 34.5827 9.9404
390.00 1494.4220 1028.4536 34.5704 9.6195
400.00 1493.4144 1028.5461 34.5581 9.2985
410.00 1492.4106 1028.6385 34.5459 8.9786
420.00 1491.9561 1028.7104 34.5451 8.8131
430.00 1491.5015 1028.7823 34.5443 8.6476
440.00 1491.0469 1028.8542 34.5435 8.4821
450.00 1490.5924 1028.9261 34.5427 8.3166
460.00 1490.1378 1028.9979 34.5420 8.1511
470.00 1489.6832 1029.0698 34.5412 7.9856
480.00 1489.2855 1029.1390 34.5405 7.8359
490.00 1489.0554 1029.2003 34.5399 7.7326
500.00 1488.8254 1029.2615 34.5394 7.6293
510.00 1488.5954 1029.3228 34.5389 7.5259
520.00 1488.3654 1029.3840 34.5383 7.4226
530.00 1488.1354 1029.4453 34.5378 7.3193
540.00 1487.9054 1029.5066 34.5373 7.2160
550.00 1487.6753 1029.5678 34.5367 7.1127
560.00 1487.4945 1029.6261 34.5355 7.0235
570.00 1487.3319 1029.6832 34.5341 6.9396
580.00 1487.1693 1029.7404 34.5327 6.8557
590.00 1487.0067 1029.7976 34.5312 6.7718
600.00 1486.8442 1029.8547 34.5298 6.6879
610.00 1486.6816 1029.9119 34.5284 6.6040
620.00 1486.5190 1029.9691 34.5269 6.5201
630.00 1486.3564 1030.0262 34.5255 6.4361
640.00 1486.2179 1030.0824 34.5242 6.3589
650.00 1486.1010 1030.1376 34.5231 6.2877
660.00 1485.9841 1030.1929 34.5220 6.2165
670.00 1485.8672 1030.2481 34.5208 6.1454
680.00 1485.7503 1030.3033 34.5197 6.0742
690.00 1485.6334 1030.3586 34.5186 6.0030
700.00 1485.5165 1030.4138 34.5174 5.9318
710.00 1485.3996 1030.4691 34.5163 5.8606
720.00 1485.2827 1030.5243 34.5152 5.7894
730.00 1485.1961 1030.5788 34.5147 5.7263
740.00 1485.1190 1030.6330 34.5144 5.6657
750.00 1485.0420 1030.6872 34.5142 5.6051
760.00 1484.9650 1030.7414 34.5139 5.5445
770.00 1484.8879 1030.7956 34.5136 5.4839
780.00 1484.8109 1030.8498 34.5133 5.4233
790.00 1484.7338 1030.9040 34.5131 5.3627
800.00 1484.6568 1030.9582 34.5128 5.3021
810.00 1484.5798 1031.0124 34.5125 5.2415
820.00 1484.5221 1031.0662 34.5127 5.1859
830.00 1484.4802 1031.1197 34.5132 5.1344
840.00 1484.4382 1031.1731 34.5138 5.0828
850.00 1484.3963 1031.2266 34.5143 5.0313
860.00 1484.3543 1031.2800 34.5149 4.9797
870.00 1484.3124 1031.3335 34.5154 4.9282
880.00 1484.2704 1031.3869 34.5159 4.8766
890.00 1484.2285 1031.4404 34.5165 4.8251
900.00 1484.1866 1031.4938 34.5170 4.7735
910.00 1484.1454 1031.5472 34.5175 4.7222
920.00 1484.1333 1031.6000 34.5186 4.6782
930.00 1484.1212 1031.6527 34.5197 4.6342
940.00 1484.1091 1031.7055 34.5207 4.5902
950.00 1484.0970 1031.7583 34.5218 4.5462
960.00 1484.0849 1031.8110 34.5228 4.5022
970.00 1484.0728 1031.8638 34.5239 4.4583
980.00 1484.0607 1031.9165 34.5250 4.4143
990.00 1484.0486 1031.9693 34.5260 4.3703
1000.00 1484.0365 1032.0220 34.5271 4.3263
1010.00 1484.0314 1032.0746 34.5282 4.2841
1020.00 1484.0442 1032.1266 34.5295 4.2463
1030.00 1484.0569 1032.1787 34.5308 4.2085
1040.00 1484.0696 1032.2308 34.5322 4.1708
1050.00 1484.0823 1032.2828 34.5335 4.1330
1060.00 1484.0951 1032.3349 34.5348 4.0952
1070.00 1484.1078 1032.3870 34.5361 4.0575
1080.00 1484.1205 1032.4390 34.5374 4.0197
1090.00 1484.1333 1032.4911 34.5387 3.9819
1100.00 1484.1460 1032.5432 34.5400 3.9441
1110.00 1484.1669 1032.5950 34.5414 3.9084
1120.00 1484.1997 1032.6464 34.5428 3.8756
1130.00 1484.2326 1032.6978 34.5442 3.8428
1140.00 1484.2654 1032.7493 34.5455 3.8100
1150.00 1484.2982 1032.8007 34.5469 3.7772
1160.00 1484.3310 1032.8521 34.5483 3.7445
1170.00 1484.3638 1032.9035 34.5497 3.7117
1180.00 1484.3966 1032.9550 34.5511 3.6789
1190.00 1484.4294 1033.0064 34.5525 3.6461
1200.00 1484.4622 1033.0578 34.5539 3.6133
1210.00 1484.5022 1033.1090 34.5552 3.5823
1220.00 1484.5510 1033.1599 34.5566 3.5534
1230.00 1484.5998 1033.2107 34.5579 3.5245
1240.00 1484.6485 1033.2616 34.5593 3.4957
1250.00 1484.6973 1033.3124 34.5606 3.4668
1260.00 1484.7461 1033.3633 34.5620 3.4380
1270.00 1484.7949 1033.4142 34.5633 3.4091
1280.00 1484.8437 1033.4650 34.5647 3.3802
1290.00 1484.8925 1033.5159 34.5660 3.3514
1300.00 1484.9413 1033.5667 34.5674 3.3225
1310.00 1484.9949 1033.6174 34.5687 3.2948
1320.00 1485.0563 1033.6678 34.5700 3.2690
1330.00 1485.1177 1033.7182 34.5713 3.2432
1340.00 1485.1792 1033.7686 34.5726 3.2175
1350.00 1485.2406 1033.8190 34.5739 3.1917
1360.00 1485.3020 1033.8693 34.5751 3.1659
1370.00 1485.3634 1033.9197 34.5764 3.1401
1380.00 1485.4249 1033.9701 34.5777 3.1143
1390.00 1485.4863 1034.0205 34.5790 3.0885
1400.00 1485.5477 1034.0709 34.5803 3.0628
1410.00 1485.6101 1034.1212 34.5815 3.0372
1420.00 1485.6823 1034.1712 34.5828 3.0140
1430.00 1485.7545 1034.2212 34.5840 2.9908
1440.00 1485.8267 1034.2711 34.5852 2.9676
1450.00 1485.8990 1034.3211 34.5864 2.9444
1460.00 1485.9712 1034.3711 34.5876 2.9212
1470.00 1486.0434 1034.4210 34.5889 2.8980
1480.00 1486.1156 1034.4710 34.5901 2.8748
1490.00 1486.1879 1034.5210 34.5913 2.8516
1500.00 1486.2601 1034.5710 34.5925 2.8285
1510.00 1486.3323 1034.6209 34.5937 2.8053
1520.00 1486.4078 1034.6708 34.5949 2.7828
1530.00 1486.4912 1034.7203 34.5961 2.7623
1540.00 1486.5745 1034.7699 34.5972 2.7417
1550.00 1486.6579 1034.8194 34.5984 2.7211
1560.00 1486.7413 1034.8689 34.5995 2.7006
1570.00 1486.8247 1034.9185 34.6007 2.6800
1580.00 1486.9081 1034.9680 34.6019 2.6594
1590.00 1486.9915 1035.0176 34.6030 2.6389
1600.00 1487.0749 1035.0671 34.6042 2.6183
1610.00 1487.1583 1035.1167 34.6053 2.5978
1620.00 1487.2417 1035.1662 34.6065 2.5772
1630.00 1487.3251 1035.2158 34.6076 2.5566
1640.00 1487.4166 1035.2650 34.6087 2.5379
1650.00 1487.5139 1035.3140 34.6098 2.5206
1660.00 1487.6112 1035.3631 34.6109 2.5032
1670.00 1487.7086 1035.4121 34.6119 2.4859
1680.00 1487.8059 1035.4611 34.6130 2.4685
1690.00 1487.9033 1035.5102 34.6141 2.4512
1700.00 1488.0006 1035.5592 34.6152 2.4338
1710.00 1488.0979 1035.6083 34.6162 2.4165
1720.00 1488.1953 1035.6573 34.6173 2.3991
1730.00 1488.2926 1035.7063 34.6184 2.3817
1740.00 1488.3899 1035.7554 34.6194 2.3644
1750.00 1488.4873 1035.8044 34.6205 2.3470
1760.00 1488.5846 1035.8534 34.6216 2.3297
1770.00 1488.6899 1035.9022 34.6226 2.3141
1780.00 1488.8036 1035.9506 34.6235 2.3005
1790.00 1488.9172 1035.9989 34.6244 2.2868
1800.00 1489.0309 1036.0473 34.6253 2.2732
1810.00 1489.1446 1036.0957 34.6262 2.2595
1820.00 1489.2582 1036.1441 34.6272 2.2459
1830.00 1489.3719 1036.1925 34.6281 2.2322
1840.00 1489.4856 1036.2409 34.6290 2.2186
1850.00 1489.5992 1036.2893 34.6299 2.2049
1860.00 1489.7129 1036.3377 34.6309 2.1913
1870.00 1489.8266 1036.3861 34.6318 2.1776
1880.00 1489.9402 1036.4345 34.6327 2.1640
1890.00 1490.0539 1036.4829 34.6336 2.1503
1900.00 1490.1676 1036.5313 34.6345 2.1367
1910.00 1490.2812 1036.5797 34.6355 2.1230
1920.00 1490.4042 1036.6277 34.6363 2.1115
1930.00 1490.5337 1036.6754 34.6370 2.1013
1940.00 1490.6632 1036.7232 34.6377 2.0912
1950.00 1490.7927 1036.7709 34.6385 2.0811
1960.00 1490.9222 1036.8186 34.6392 2.0710
1970.00 1491.0517 1036.8664 34.6399 2.0609
1980.00 1491.1813 1036.9141 34.6406 2.0508
1990.00 1491.3108 1036.9618 34.6414 2.0407
2000.00 1491.4403 1037.0095 34.6421 2.0306
2010.00 1491.5698 1037.0573 34.6428 2.0205
2020.00 1491.6993 1037.1050 34.6436 2.0103
2030.00 1491.8288 1037.1527 34.6443 2.0002
2040.00 1491.9583 1037.2004 34.6450 1.9901
2050.00 1492.0879 1037.2482 34.6457 1.9800
2060.00 1492.2174 1037.2959 34.6465 1.9699
2070.00 1492.3469 1037.3436 34.6472 1.9598
2080.00 1492.4764 1037.3914 34.6479 1.9497
2090.00 1492.6137 1037.4387 34.6486 1.9413
2100.00 1492.7563 1037.4858 34.6491 1.9340
2110.00 1492.8988 1037.5330 34.6496 1.9267
2120.00 1493.0414 1037.5801 34.6502 1.9195
2130.00 1493.1840 1037.6272 34.6507 1.9122
2140.00 1493.3265 1037.6743 34.6513 1.9049
2150.00 1493.4691 1037.7215 34.6518 1.8977
2160.00 1493.6117 1037.7686 34.6524 1.8904
2170.00 1493.7542 1037.8157 34.6529 1.8832
2180.00 1493.8968 1037.8628 34.6535 1.8759
2190.00 1494.0394 1037.9099 34.6540 1.8686
2200.00 1494.1819 1037.9571 34.6545 1.8614
2210.00 1494.3245 1038.0042 34.6551 1.8541
2220.00 1494.4671 1038.0513 34.6556 1.8468
2230.00 1494.6096 1038.0984 34.6562 1.8396
2240.00 1494.7522 1038.1456 34.6567 1.8323
2250.00 1494.8947 1038.1927 34.6573 1.8250
2260.00 1495.0373 1038.2398 34.6578 1.8178
2270.00 1495.1799 1038.2869 34.6584 1.8105
2280.00 1495.3259 1038.3339 34.6589 1.8040
2290.00 1495.4774 1038.3805 34.6593 1.7986
2300.00 1495.6290 1038.4272 34.6597 1.7932
2310.00 1495.7806 1038.4738 34.6601 1.7878
2320.00 1495.9322 1038.5205 34.6605 1.7824
2330.00 1496.0838 1038.5671 34.6609 1.7771
2340.00 1496.2354 1038.6137 34.6613 1.7717
2350.00 1496.3870 1038.6604 34.6617 1.7663
2360.00 1496.5386 1038.7070 34.6621 1.7609
2370.00 1496.6902 1038.7537 34.6625 1.7556
2380.00 1496.8418 1038.8003 34.6629 1.7502
2390.00 1496.9934 1038.8470 34.6633 1.7448
2400.00 1497.1450 1038.8936 34.6637 1.7394
2410.00 1497.2966 1038.9403 34.6641 1.7340
2420.00 1497.4482 1038.9869 34.6645 1.7287
2430.00 1497.5998 1039.0336 34.6649 1.7233
2440.00 1497.7514 1039.0802 34.6653 1.7179
2450.00 1497.9030 1039.1268 34.6657 1.7125
2460.00 1498.0545 1039.1735 34.6661 1.7071
2470.00 1498.2061 1039.2201 34.6665 1.7018
2480.00 1498.3577 1039.2668 34.6669 1.6964
2490.00 1498.5093 1039.3134 34.6673 1.6910
2500.00 1498.6653 1039.3598 34.6676 1.6865
2510.00 1498.8219 1039.4061 34.6679 1.6820
2520.00 1498.9785 1039.4524 34.6682 1.6776
2530.00 1499.1351 1039.4987 34.6685 1.6731
2540.00 1499.2917 1039.5450 34.6688 1.6687
2550.00 1499.4483 1039.5913 34.6691 1.6643
2560.00 1499.6049 1039.6376 34.6694 1.6598
2570.00 1499.7615 1039.6839 34.6697 1.6554
2580.00 1499.9181 1039.7302 34.6700 1.6509
2590.00 1500.0747 1039.7765 34.6704 1.6465
2600.00 1500.2313 1039.8228 34.6707 1.6421
2610.00 1500.3879 1039.8691 34.6710 1.6376
2620.00 1500.5444 1039.9154 34.6713 1.6332
2630.00 1500.7010 1039.9617 34.6716 1.6288
2640.00 1500.8576 1040.0080 34.6719 1.6243
2650.00 1501.0142 1040.0543 34.6722 1.6199
2660.00 1501.1708 1040.1006 34.6725 1.6154
2670.00 1501.3274 1040.1469 34.6728 1.6110
2680.00 1501.4840 1040.1932 34.6731 1.6066
2690.00 1501.6406 1040.2395 34.6734 1.6021
2700.00 1501.7972 1040.2858 34.6737 1.5977
2710.00 1501.9538 1040.3321 34.6740 1.5933
2720.00 1502.1104 1040.3784 34.6743 1.5888
2730.00 1502.2671 1040.4247 34.6746 1.5844
2740.00 1502.4250 1040.4708 34.6748 1.5800
2750.00 1502.5830 1040.5169 34.6750 1.5757
2760.00 1502.7409 1040.5630 34.6753 1.5713
2770.00 1502.8988 1040.6091 34.6755 1.5670
2780.00 1503.0567 1040.6552 34.6758 1.5626
2790.00 1503.2147 1040.7013 34.6760 1.5583
2800.00 1503.3726 1040.7473 34.6762 1.5539
2810.00 1503.5305 1040.7934 34.6765 1.5496
2820.00 1503.6884 1040.8395 34.6767 1.5452
2830.00 1503.8464 1040.8856 34.6769 1.5409
2840.00 1504.0043 1040.9317 34.6772 1.5365
2850.00 1504.1622 1040.9778 34.6774 1.5321
2860.00 1504.3202 1041.0239 34.6777 1.5278
2870.00 1504.4781 1041.0700 34.6779 1.5234
2880.00 1504.6360 1041.1161 34.6781 1.5191
2890.00 1504.7939 1041.1622 34.6784 1.5147
2900.00 1504.9519 1041.2083 34.6786 1.5104
2910.00 1505.1098 1041.2543 34.6788 1.5060
2920.00 1505.2677 1041.3004 34.6791 1.5017
2930.00 1505.4256 1041.3465 34.6793 1.4973
2940.00 1505.5836 1041.3926 34.6796 1.4930
2950.00 1505.7415 1041.4387 34.6798 1.4886
2960.00 1505.8994 1041.4848 34.6800 1.4843
2970.00 1506.0574 1041.5309 34.6803 1.4799
2980.00 1506.2153 1041.5770 34.6805 1.4756
2990.00 1506.3732 1041.6231 34.6807 1.4712
3000.00 1506.5331 1041.6689 34.6809 1.4670
3010.00 1506.6930 1041.7148 34.6811 1.4629
3020.00 1506.8529 1041.7607 34.6813 1.4588
3030.00 1507.0128 1041.8065 34.6815 1.4546
3040.00 1507.1727 1041.8524 34.6817 1.4505
3050.00 1507.3326 1041.8982 34.6819 1.4463
3060.00 1507.4926 1041.9441 34.6821 1.4422
3070.00 1507.6525 1041.9900 34.6823 1.4380
3080.00 1507.8124 1042.0358 34.6825 1.4339
3090.00 1507.9723 1042.0817 34.6827 1.4297
3100.00 1508.1322 1042.1275 34.6828 1.4256
3110.00 1508.2921 1042.1734 34.6830 1.4214
3120.00 1508.4520 1042.2193 34.6832 1.4173
3130.00 1508.6120 1042.2651 34.6834 1.4131
3140.00 1508.7719 1042.3110 34.6836 1.4090
3150.00 1508.9318 1042.3569 34.6838 1.4048
3160.00 1509.0917 1042.4027 34.6840 1.4007
3170.00 1509.2516 1042.4486 34.6842 1.3965
3180.00 1509.4115 1042.4944 34.6844 1.3924
3190.00 1509.5714 1042.5403 34.6846 1.3882
3200.00 1509.7314 1042.5862 34.6848 1.3841
3210.00 1509.8913 1042.6320 34.6849 1.3799
3220.00 1510.0512 1042.6779 34.6851 1.3758
3230.00 1510.2111 1042.7237 34.6853 1.3716
3240.00 1510.3710 1042.7696 34.6855 1.3675
3250.00 1510.5309 1042.8155 34.6857 1.3633
3260.00 1510.6908 1042.8613 34.6859 1.3592
3270.00 1510.8508 1042.9072 34.6861 1.3550
3280.00 1511.0130 1042.9529 34.6863 1.3513
3290.00 1511.1770 1042.9984 34.6864 1.3478
3300.00 1511.3410 1043.0439 34.6866 1.3443
3310.00 1511.5050 1043.0895 34.6867 1.3408
3320.00 1511.6690 1043.1350 34.6869 1.3373
3330.00 1511.8330 1043.1806 34.6870 1.3338
3340.00 1511.9970 1043.2261 34.6871 1.3303
3350.00 1512.1611 1043.2717 34.6873 1.3268
3360.00 1512.3251 1043.3172 34.6874 1.3233
3370.00 1512.4891 1043.3628 34.6876 1.3198
3380.00 1512.6531 1043.4083 34.6877 1.3163
3390.00 1512.8171 1043.4539 34.6879 1.3128
3400.00 1512.9811 1043.4994 34.6880 1.3093
3410.00 1513.1451 1043.5449 34.6882 1.3058
3420.00 1513.3091 1043.5905 34.6883 1.3023
3430.00 1513.4731 1043.6360 34.6885 1.2988
3440.00 1513.6371 1043.6816 34.6886 1.2953
3450.00 1513.8011 1043.7271 34.6888 1.2918
3460.00 1513.9651 1043.7727 34.6889 1.2883
3470.00 1514.1291 1043.8182 34.6891 1.2848
3480.00 1514.2931 1043.8638 34.6892 1.2813
3490.00 1514.4571 1043.9093 34.6894 1.2778
3500.00 1514.6211 1043.9548 34.6895 1.2743
3510.00 1514.7851 1044.0004 34.6897 1.2708
3520.00 1514.9491 1044.0459 34.6898 1.2673
3530.00 1515.1131 1044.0915 34.6900 1.2638
3540.00 1515.2771 1044.1370 34.6901 1.2603
3550.00 1515.4411 1044.1826 34.6903 1.2568
3560.00 1515.6052 1044.2281 34.6904 1.2533
3570.00 1515.7692 1044.2737 34.6906 1.2498
3580.00 1515.9332 1044.3192 34.6907 1.2463
3590.00 1516.1054 1044.3642 34.6908 1.2444
3600.00 1516.2789 1044.4092 34.6908 1.2428
3610.00 1516.4523 1044.4542 34.6909 1.2411
3620.00 1516.6257 1044.4991 34.6910 1.2395
3630.00 1516.7992 1044.5441 34.6910 1.2378
3640.00 1516.9726 1044.5891 34.6911 1.2361
3650.00 1517.1460 1044.6340 34.6911 1.2345
3660.00 1517.3195 1044.6790 34.6912 1.2328
3670.00 1517.4929 1044.7240 34.6913 1.2311
3680.00 1517.6663 1044.7689 34.6913 1.2295
3690.00 1517.8398 1044.8139 34.6914 1.2278
3700.00 1518.0132 1044.8589 34.6914 1.2261
3710.00 1518.1866 1044.9038 34.6915 1.2245
3720.00 1518.3601 1044.9488 34.6916 1.2228
3730.00 1518.5335 1044.9938 34.6916 1.2212
3740.00 1518.7069 1045.0388 34.6917 1.2195
3750.00 1518.8804 1045.0837 34.6917 1.2178
3760.00 1519.0538 1045.1287 34.6918 1.2162
3770.00 1519.2272 1045.1737 34.6919 1.2145
3780.00 1519.4007 1045.2186 34.6919 1.2128
3790.00 1519.5741 1045.2636 34.6920 1.2112
