# Averages over distance (i) for each depth (k):
# Depth(m) Speed(m/s) Density(kg/m^3) Salt PSU Theta(degC)
0.00 1540.7589 1022.5807 35.1273 27.7262
10.00 1540.8951 1022.6302 35.1286 27.7098
20.00 1540.9658 1022.6922 35.1331 27.6621
30.00 1540.8645 1022.7873 35.1462 27.5323
40.00 1540.5906 1022.9123 35.1648 27.3226
50.00 1540.2269 1023.0481 35.1820 27.0748
60.00 1539.8323 1023.1852 35.1968 26.8164
70.00 1539.4105 1023.3240 35.2105 26.5485
80.00 1538.9178 1023.4713 35.2243 26.2520
90.00 1538.2891 1023.6344 35.2369 25.9003
100.00 1537.4550 1023.8186 35.2453 25.4670
110.00 1536.3612 1024.0248 35.2447 24.9352
120.00 1535.0069 1024.2467 35.2309 24.3110
130.00 1533.4549 1024.4746 35.2042 23.6242
140.00 1531.7910 1024.7004 35.1683 22.9094
150.00 1530.1173 1024.9101 35.1252 22.2135
160.00 1528.4968 1025.1065 35.0807 21.5503
170.00 1526.9192 1025.2921 35.0352 20.9133
180.00 1525.4400 1025.4595 34.9902 20.3284
190.00 1523.9918 1025.6211 34.9455 19.7600
200.00 1522.6117 1025.7718 34.9022 19.2259
210.00 1521.2929 1025.9126 34.8602 18.7228
220.00 1519.9741 1026.0534 34.8183 18.2197
230.00 1518.7273 1026.1824 34.7790 17.7547
240.00 1517.5073 1026.3071 34.7407 17.3038
250.00 1516.2873 1026.4317 34.7024 16.8529
260.00 1515.0799 1026.5535 34.6651 16.4109
270.00 1513.9098 1026.6667 34.6307 15.9948
280.00 1512.7397 1026.7799 34.5962 15.5787
290.00 1511.5695 1026.8931 34.5618 15.1626
300.00 1510.3996 1027.0063 34.5274 14.7467
310.00 1509.2606 1027.1109 34.4980 14.3586
320.00 1508.1216 1027.2154 34.4687 13.9706
330.00 1506.9826 1027.3200 34.4394 13.5825
340.00 1505.8436 1027.4245 34.4101 13.1944
350.00 1504.7046 1027.5290 34.3808 12.8064
360.00 1503.6341 1027.6260 34.3589 12.4543
370.00 1502.5687 1027.7223 34.3376 12.1048
380.00 1501.5033 1027.8187 34.3163 11.7553
390.00 1500.4379 1027.9151 34.2950 11.4059
400.00 1499.3725 1028.0114 34.2737 11.0564
410.00 1498.3082 1028.1078 34.2524 10.7073
420.00 1497.4007 1028.1958 34.2415 10.4155
430.00 1496.4933 1028.2839 34.2307 10.1236
440.00 1495.5859 1028.3720 34.2198 9.8318
450.00 1494.6785 1028.4601 34.2089 9.5399
460.00 1493.7711 1028.5482 34.1981 9.2481
470.00 1492.8636 1028.6363 34.1872 8.9562
480.00 1492.0185 1028.7223 34.1789 8.6831
490.00 1491.3571 1028.8021 34.1785 8.4655
500.00 1490.6957 1028.8819 34.1780 8.2478
510.00 1490.0343 1028.9617 34.1775 8.0301
520.00 1489.3729 1029.0415 34.1770 7.8125
530.00 1488.7115 1029.1214 34.1766 7.5948
540.00 1488.0501 1029.2012 34.1761 7.3772
550.00 1487.3887 1029.2810 34.1756 7.1595
560.00 1486.9315 1029.3551 34.1805 6.9973
570.00 1486.5503 1029.4271 34.1873 6.8558
580.00 1486.1690 1029.4990 34.1942 6.7142
590.00 1485.7877 1029.5710 34.2010 6.5727
600.00 1485.4065 1029.6430 34.2079 6.4311
610.00 1485.0252 1029.7149 34.2148 6.2896
620.00 1484.6439 1029.7869 34.2216 6.1480
630.00 1484.2627 1029.8588 34.2285 6.0065
640.00 1483.9987 1029.9273 34.2368 5.8952
650.00 1483.8402 1029.9925 34.2464 5.8111
660.00 1483.6817 1030.0577 34.2560 5.7271
670.00 1483.5232 1030.1229 34.2656 5.6431
680.00 1483.3646 1030.1881 34.2752 5.5590
690.00 1483.2061 1030.2534 34.2847 5.4750
700.00 1483.0476 1030.3186 34.2943 5.3910
710.00 1482.8891 1030.3838 34.3039 5.3069
720.00 1482.7306 1030.4490 34.3135 5.2229
730.00 1482.6612 1030.5103 34.3223 5.1617
740.00 1482.6199 1030.5704 34.3309 5.1078
750.00 1482.5787 1030.6305 34.3394 5.0539
760.00 1482.5374 1030.6906 34.3480 5.0000
770.00 1482.4961 1030.7507 34.3565 4.9461
780.00 1482.4549 1030.8108 34.3651 4.8922
790.00 1482.4136 1030.8709 34.3736 4.8383
800.00 1482.3723 1030.9310 34.3822 4.7844
810.00 1482.3311 1030.9910 34.3907 4.7305
820.00 1482.3157 1031.0491 34.3979 4.6835
830.00 1482.3212 1031.1055 34.4040 4.6422
840.00 1482.3268 1031.1619 34.4101 4.6009
850.00 1482.3323 1031.2183 34.4162 4.5596
860.00 1482.3379 1031.2747 34.4224 4.5183
870.00 1482.3435 1031.3311 34.4285 4.4770
880.00 1482.3490 1031.3875 34.4346 4.4357
890.00 1482.3546 1031.4439 34.4407 4.3944
900.00 1482.3601 1031.5003 34.4468 4.3531
910.00 1482.3663 1031.5567 34.4528 4.3119
920.00 1482.3942 1031.6105 34.4569 4.2769
930.00 1482.4221 1031.6644 34.4609 4.2419
940.00 1482.4501 1031.7183 34.4649 4.2070
950.00 1482.4780 1031.7721 34.4689 4.1720
960.00 1482.5059 1031.8260 34.4729 4.1370
970.00 1482.5339 1031.8799 34.4769 4.1020
980.00 1482.5618 1031.9337 34.4809 4.0670
990.00 1482.5898 1031.9876 34.4849 4.0320
1000.00 1482.6177 1032.0415 34.4889 3.9970
1010.00 1482.6498 1032.0949 34.4926 3.9632
1020.00 1482.6923 1032.1471 34.4953 3.9323
1030.00 1482.7348 1032.1994 34.4980 3.9014
1040.00 1482.7774 1032.2517 34.5007 3.8705
1050.00 1482.8199 1032.3039 34.5034 3.8396
1060.00 1482.8624 1032.3562 34.5061 3.8087
1070.00 1482.9049 1032.4084 34.5088 3.7778
1080.00 1482.9474 1032.4607 34.5115 3.7469
1090.00 1482.9900 1032.5129 34.5142 3.7160
1100.00 1483.0325 1032.5652 34.5169 3.6851
1110.00 1483.0790 1032.6171 34.5193 3.6553
1120.00 1483.1312 1032.6684 34.5212 3.6270
1130.00 1483.1833 1032.7196 34.5232 3.5988
1140.00 1483.2355 1032.7709 34.5251 3.5706
1150.00 1483.2877 1032.8222 34.5271 3.5423
1160.00 1483.3399 1032.8735 34.5290 3.5141
1170.00 1483.3921 1032.9248 34.5310 3.4858
1180.00 1483.4443 1032.9761 34.5329 3.4576
1190.00 1483.4964 1033.0274 34.5349 3.4293
1200.00 1483.5486 1033.0787 34.5368 3.4011
1210.00 1483.6037 1033.1297 34.5386 3.3736
1220.00 1483.6623 1033.1804 34.5401 3.3471
1230.00 1483.7209 1033.2311 34.5416 3.3206
1240.00 1483.7795 1033.2818 34.5431 3.2941
1250.00 1483.8381 1033.3325 34.5447 3.2677
1260.00 1483.8967 1033.3832 34.5462 3.2412
1270.00 1483.9553 1033.4339 34.5477 3.2147
1280.00 1484.0139 1033.4846 34.5492 3.1882
1290.00 1484.0724 1033.5353 34.5507 3.1617
1300.00 1484.1310 1033.5860 34.5522 3.1352
1310.00 1484.1923 1033.6365 34.5537 3.1094
1320.00 1484.2579 1033.6868 34.5550 3.0846
1330.00 1484.3234 1033.7370 34.5562 3.0599
1340.00 1484.3890 1033.7873 34.5575 3.0352
1350.00 1484.4546 1033.8375 34.5588 3.0105
1360.00 1484.5201 1033.8878 34.5601 2.9858
1370.00 1484.5857 1033.9381 34.5614 2.9611
1380.00 1484.6513 1033.9883 34.5626 2.9363
1390.00 1484.7168 1034.0386 34.5639 2.9116
1400.00 1484.7824 1034.0888 34.5652 2.8869
1410.00 1484.8489 1034.1391 34.5665 2.8624
1420.00 1484.9251 1034.1888 34.5676 2.8403
1430.00 1485.0014 1034.2386 34.5687 2.8181
1440.00 1485.0776 1034.2884 34.5699 2.7960
1450.00 1485.1539 1034.3382 34.5710 2.7738
1460.00 1485.2301 1034.3880 34.5721 2.7517
1470.00 1485.3064 1034.4378 34.5733 2.7295
1480.00 1485.3826 1034.4875 34.5744 2.7074
1490.00 1485.4588 1034.5373 34.5755 2.6852
1500.00 1485.5351 1034.5871 34.5767 2.6630
1510.00 1485.6113 1034.6369 34.5778 2.6409
1520.00 1485.6918 1034.6865 34.5789 2.6197
1530.00 1485.7825 1034.7358 34.5799 2.6010
1540.00 1485.8733 1034.7850 34.5810 2.5822
1550.00 1485.9641 1034.8342 34.5820 2.5634
1560.00 1486.0548 1034.8835 34.5830 2.5446
1570.00 1486.1456 1034.9327 34.5841 2.5259
1580.00 1486.2363 1034.9820 34.5851 2.5071
1590.00 1486.3271 1035.0312 34.5861 2.4883
1600.00 1486.4179 1035.0804 34.5871 2.4695
1610.00 1486.5086 1035.1297 34.5882 2.4508
1620.00 1486.5994 1035.1789 34.5892 2.4320
1630.00 1486.6901 1035.2282 34.5902 2.4132
1640.00 1486.7901 1035.2771 34.5912 2.3965
1650.00 1486.8967 1035.3257 34.5921 2.3814
1660.00 1487.0033 1035.3744 34.5930 2.3662
1670.00 1487.1098 1035.4231 34.5940 2.3510
1680.00 1487.2164 1035.4718 34.5949 2.3358
1690.00 1487.3230 1035.5204 34.5958 2.3207
1700.00 1487.4296 1035.5691 34.5968 2.3055
1710.00 1487.5361 1035.6178 34.5977 2.2903
1720.00 1487.6427 1035.6665 34.5986 2.2752
1730.00 1487.7493 1035.7151 34.5996 2.2600
1740.00 1487.8559 1035.7638 34.6005 2.2448
1750.00 1487.9625 1035.8125 34.6014 2.2297
1760.00 1488.0690 1035.8612 34.6023 2.2145
1770.00 1488.1826 1035.9096 34.6032 2.2009
1780.00 1488.3035 1035.9577 34.6040 2.1889
1790.00 1488.4244 1036.0058 34.6049 2.1770
1800.00 1488.5453 1036.0539 34.6057 2.1650
1810.00 1488.6662 1036.1021 34.6065 2.1530
1820.00 1488.7872 1036.1502 34.6073 2.1411
1830.00 1488.9081 1036.1983 34.6081 2.1291
1840.00 1489.0290 1036.2464 34.6090 2.1172
1850.00 1489.1499 1036.2946 34.6098 2.1052
1860.00 1489.2708 1036.3427 34.6106 2.0933
1870.00 1489.3917 1036.3908 34.6114 2.0813
1880.00 1489.5127 1036.4389 34.6122 2.0693
1890.00 1489.6336 1036.4871 34.6131 2.0574
1900.00 1489.7545 1036.5352 34.6139 2.0454
1910.00 1489.8754 1036.5833 34.6147 2.0335
1920.00 1490.0031 1036.6312 34.6154 2.0230
1930.00 1490.1355 1036.6788 34.6161 2.0136
1940.00 1490.2680 1036.7264 34.6168 2.0041
1950.00 1490.4004 1036.7741 34.6175 1.9947
1960.00 1490.5329 1036.8217 34.6182 1.9853
1970.00 1490.6653 1036.8694 34.6189 1.9758
1980.00 1490.7978 1036.9170 34.6196 1.9664
1990.00 1490.9303 1036.9647 34.6203 1.9570
2000.00 1491.0627 1037.0123 34.6210 1.9475
2010.00 1491.1952 1037.0599 34.6217 1.9381
2020.00 1491.3276 1037.1076 34.6224 1.9287
2030.00 1491.4601 1037.1552 34.6231 1.9192
2040.00 1491.5925 1037.2029 34.6238 1.9098
2050.00 1491.7250 1037.2505 34.6245 1.9004
2060.00 1491.8575 1037.2981 34.6252 1.8909
2070.00 1491.9899 1037.3458 34.6259 1.8815
2080.00 1492.1224 1037.3934 34.6266 1.8721
2090.00 1492.2602 1037.4408 34.6273 1.8638
2100.00 1492.4016 1037.4880 34.6278 1.8563
2110.00 1492.5430 1037.5352 34.6284 1.8487
2120.00 1492.6844 1037.5824 34.6290 1.8412
2130.00 1492.8258 1037.6297 34.6296 1.8337
2140.00 1492.9673 1037.6769 34.6302 1.8261
2150.00 1493.1087 1037.7241 34.6307 1.8186
2160.00 1493.2501 1037.7713 34.6313 1.8111
2170.00 1493.3915 1037.8185 34.6319 1.8036
2180.00 1493.5329 1037.8657 34.6325 1.7960
2190.00 1493.6743 1037.9129 34.6331 1.7885
2200.00 1493.8158 1037.9601 34.6336 1.7810
2210.00 1493.9572 1038.0073 34.6342 1.7734
2220.00 1494.0986 1038.0546 34.6348 1.7659
2230.00 1494.2400 1038.1018 34.6354 1.7584
2240.00 1494.3814 1038.1490 34.6360 1.7509
2250.00 1494.5229 1038.1962 34.6365 1.7433
2260.00 1494.6643 1038.2434 34.6371 1.7358
2270.00 1494.8057 1038.2906 34.6377 1.7283
2280.00 1494.9498 1038.3377 34.6382 1.7213
2290.00 1495.0985 1038.3845 34.6387 1.7152
2300.00 1495.2471 1038.4313 34.6392 1.7092
2310.00 1495.3958 1038.4781 34.6397 1.7031
2320.00 1495.5444 1038.5250 34.6401 1.6971
2330.00 1495.6930 1038.5718 34.6406 1.6910
2340.00 1495.8417 1038.6186 34.6411 1.6849
2350.00 1495.9903 1038.6654 34.6416 1.6789
2360.00 1496.1389 1038.7122 34.6420 1.6728
2370.00 1496.2876 1038.7591 34.6425 1.6668
2380.00 1496.4362 1038.8059 34.6430 1.6607
2390.00 1496.5849 1038.8527 34.6434 1.6546
2400.00 1496.7335 1038.8995 34.6439 1.6486
2410.00 1496.8821 1038.9464 34.6444 1.6425
2420.00 1497.0308 1038.9932 34.6449 1.6365
2430.00 1497.1794 1039.0400 34.6453 1.6304
2440.00 1497.3281 1039.0868 34.6458 1.6244
2450.00 1497.4767 1039.1336 34.6463 1.6183
2460.00 1497.6253 1039.1805 34.6468 1.6122
2470.00 1497.7740 1039.2273 34.6472 1.6062
2480.00 1497.9226 1039.2741 34.6477 1.6001
2490.00 1498.0713 1039.3209 34.6482 1.5941
2500.00 1498.2253 1039.3674 34.6486 1.5890
2510.00 1498.3801 1039.4139 34.6490 1.5842
2520.00 1498.5350 1039.4603 34.6494 1.5793
2530.00 1498.6898 1039.5068 34.6497 1.5745
2540.00 1498.8446 1039.5533 34.6501 1.5696
2550.00 1498.9995 1039.5997 34.6505 1.5648
2560.00 1499.1543 1039.6462 34.6509 1.5599
2570.00 1499.3091 1039.6926 34.6513 1.5550
2580.00 1499.4639 1039.7391 34.6517 1.5502
2590.00 1499.6188 1039.7856 34.6521 1.5453
2600.00 1499.7736 1039.8320 34.6525 1.5405
2610.00 1499.9284 1039.8785 34.6528 1.5356
2620.00 1500.0833 1039.9249 34.6532 1.5307
2630.00 1500.2381 1039.9714 34.6536 1.5259
2640.00 1500.3929 1040.0178 34.6540 1.5210
2650.00 1500.5477 1040.0643 34.6544 1.5162
2660.00 1500.7026 1040.1108 34.6548 1.5113
2670.00 1500.8574 1040.1572 34.6552 1.5064
2680.00 1501.0122 1040.2037 34.6556 1.5016
2690.00 1501.1671 1040.2501 34.6559 1.4967
2700.00 1501.3219 1040.2966 34.6563 1.4919
2710.00 1501.4767 1040.3431 34.6567 1.4870
2720.00 1501.6316 1040.3895 34.6571 1.4821
2730.00 1501.7868 1040.4359 34.6575 1.4774
2740.00 1501.9469 1040.4821 34.6578 1.4735
2750.00 1502.1070 1040.5282 34.6581 1.4696
2760.00 1502.2671 1040.5743 34.6584 1.4657
2770.00 1502.4272 1040.6204 34.6588 1.4618
2780.00 1502.5873 1040.6665 34.6591 1.4579
2790.00 1502.7474 1040.7126 34.6594 1.4540
2800.00 1502.9075 1040.7588 34.6597 1.4501
2810.00 1503.0677 1040.8049 34.6600 1.4462
2820.00 1503.2278 1040.8510 34.6604 1.4423
2830.00 1503.3879 1040.8971 34.6607 1.4384
2840.00 1503.5480 1040.9432 34.6610 1.4345
2850.00 1503.7081 1040.9893 34.6613 1.4306
2860.00 1503.8682 1041.0355 34.6616 1.4267
2870.00 1504.0283 1041.0816 34.6620 1.4228
2880.00 1504.1884 1041.1277 34.6623 1.4189
2890.00 1504.3485 1041.1738 34.6626 1.4150
2900.00 1504.5086 1041.2199 34.6629 1.4111
2910.00 1504.6687 1041.2660 34.6632 1.4072
2920.00 1504.8289 1041.3122 34.6636 1.4033
2930.00 1504.9890 1041.3583 34.6639 1.3994
2940.00 1505.1491 1041.4044 34.6642 1.3955
2950.00 1505.3092 1041.4505 34.6645 1.3916
2960.00 1505.4693 1041.4966 34.6648 1.3877
2970.00 1505.6294 1041.5427 34.6652 1.3838
2980.00 1505.7895 1041.5889 34.6655 1.3800
2990.00 1505.9496 1041.6350 34.6658 1.3761
3000.00 1506.1142 1041.6808 34.6661 1.3729
3010.00 1506.2789 1041.7265 34.6663 1.3698
3020.00 1506.4436 1041.7723 34.6666 1.3667
3030.00 1506.6083 1041.8181 34.6669 1.3636
3040.00 1506.7731 1041.8639 34.6671 1.3605
3050.00 1506.9378 1041.9097 34.6674 1.3574
3060.00 1507.1025 1041.9555 34.6677 1.3543
3070.00 1507.2672 1042.0012 34.6679 1.3511
3080.00 1507.4319 1042.0470 34.6682 1.3480
3090.00 1507.5966 1042.0928 34.6685 1.3449
3100.00 1507.7613 1042.1386 34.6687 1.3418
3110.00 1507.9260 1042.1844 34.6690 1.3387
3120.00 1508.0908 1042.2301 34.6692 1.3356
3130.00 1508.2555 1042.2759 34.6695 1.3325
3140.00 1508.4202 1042.3217 34.6698 1.3294
3150.00 1508.5849 1042.3675 34.6700 1.3263
3160.00 1508.7496 1042.4133 34.6703 1.3231
3170.00 1508.9143 1042.4591 34.6706 1.3200
3180.00 1509.0790 1042.5048 34.6708 1.3169
3190.00 1509.2437 1042.5506 34.6711 1.3138
3200.00 1509.4084 1042.5964 34.6714 1.3107
3210.00 1509.5732 1042.6422 34.6716 1.3076
3220.00 1509.7379 1042.6880 34.6719 1.3045
3230.00 1509.9026 1042.7338 34.6722 1.3014
3240.00 1510.0673 1042.7795 34.6724 1.2982
3250.00 1510.2320 1042.8253 34.6727 1.2951
3260.00 1510.3967 1042.8711 34.6730 1.2920
3270.00 1510.5614 1042.9169 34.6732 1.2889
3280.00 1510.7284 1042.9625 34.6735 1.2861
3290.00 1510.8969 1043.0079 34.6737 1.2836
3300.00 1511.0655 1043.0534 34.6739 1.2811
3310.00 1511.2341 1043.0989 34.6741 1.2786
3320.00 1511.4027 1043.1443 34.6744 1.2761
3330.00 1511.5712 1043.1898 34.6746 1.2736
3340.00 1511.7398 1043.2352 34.6748 1.2711
3350.00 1511.9084 1043.2807 34.6750 1.2686
3360.00 1512.0770 1043.3262 34.6752 1.2660
3370.00 1512.2456 1043.3716 34.6755 1.2635
3380.00 1512.4141 1043.4171 34.6757 1.2610
3390.00 1512.5827 1043.4625 34.6759 1.2585
3400.00 1512.7513 1043.5080 34.6761 1.2560
3410.00 1512.9199 1043.5535 34.6764 1.2535
3420.00 1513.0884 1043.5989 34.6766 1.2510
3430.00 1513.2570 1043.6444 34.6768 1.2484
3440.00 1513.4256 1043.6898 34.6770 1.2459
3450.00 1513.5942 1043.7353 34.6773 1.2434
3460.00 1513.7627 1043.7807 34.6775 1.2409
3470.00 1513.9313 1043.8262 34.6777 1.2384
3480.00 1514.0999 1043.8717 34.6779 1.2359
3490.00 1514.2685 1043.9171 34.6781 1.2334
3500.00 1514.4370 1043.9626 34.6784 1.2309
3510.00 1514.6056 1044.0080 34.6786 1.2283
3520.00 1514.7742 1044.0535 34.6788 1.2258
3530.00 1514.9428 1044.0990 34.6790 1.2233
3540.00 1515.1113 1044.1444 34.6793 1.2208
3550.00 1515.2799 1044.1899 34.6795 1.2183
3560.00 1515.4485 1044.2353 34.6797 1.2158
3570.00 1515.6171 1044.2808 34.6799 1.2133
3580.00 1515.7857 1044.3263 34.6801 1.2107
3590.00 1515.9577 1044.3714 34.6803 1.2088
3600.00 1516.1303 1044.4165 34.6805 1.2069
3610.00 1516.3028 1044.4616 34.6807 1.2050
3620.00 1516.4754 1044.5067 34.6809 1.2031
3630.00 1516.6480 1044.5518 34.6810 1.2012
3640.00 1516.8205 1044.5969 34.6812 1.1993
3650.00 1516.9931 1044.6420 34.6814 1.1974
3660.00 1517.1657 1044.6871 34.6816 1.1955
3670.00 1517.3382 1044.7322 34.6817 1.1936
3680.00 1517.5108 1044.7773 34.6819 1.1917
3690.00 1517.6833 1044.8225 34.6821 1.1898
3700.00 1517.8559 1044.8676 34.6823 1.1879
3710.00 1518.0285 1044.9127 34.6825 1.1860
3720.00 1518.2010 1044.9578 34.6826 1.1841
3730.00 1518.3736 1045.0029 34.6828 1.1822
3740.00 1518.5462 1045.0480 34.6830 1.1803
3750.00 1518.7187 1045.0931 34.6832 1.1784
3760.00 1518.8913 1045.1382 34.6833 1.1765
3770.00 1519.0638 1045.1833 34.6835 1.1746
3780.00 1519.2364 1045.2284 34.6837 1.1726
3790.00 1519.4090 1045.2735 34.6839 1.1707
3800.00 1519.5815 1045.3186 34.6840 1.1688
3810.00 1519.7541 1045.3637 34.6842 1.1669
3820.00 1519.9267 1045.4088 34.6844 1.1650
3830.00 1520.0992 1045.4539 34.6846 1.1631
3840.00 1520.2718 1045.4990 34.6848 1.1612
3850.00 1520.4444 1045.5441 34.6849 1.1593
3860.00 1520.6169 1045.5892 34.6851 1.1574
3870.00 1520.7895 1045.6343 34.6853 1.1555
3880.00 1520.9620 1045.6794 34.6855 1.1536
3890.00 1521.1346 1045.7245 34.6856 1.1517
3900.00 1521.3072 1045.7696 34.6858 1.1498
3910.00 1521.4797 1045.8147 34.6860 1.1479
3920.00 1521.6547 1045.8596 34.6861 1.1463
3930.00 1521.8300 1045.9044 34.6863 1.1447
3940.00 1522.0052 1045.9492 34.6865 1.1431
3950.00 1522.1805 1045.9939 34.6866 1.1416
3960.00 1522.3558 1046.0387 34.6868 1.1400
3970.00 1522.5311 1046.0835 34.6869 1.1384
3980.00 1522.7064 1046.1283 34.6871 1.1368
3990.00 1522.8817 1046.1731 34.6872 1.1352
4000.00 1523.0569 1046.2179 34.6874 1.1336
4010.00 1523.2322 1046.2627 34.6875 1.1320
4020.00 1523.4075 1046.3075 34.6877 1.1305
4030.00 1523.5828 1046.3523 34.6878 1.1289
4040.00 1523.7581 1046.3970 34.6880 1.1273
4050.00 1523.9334 1046.4418 34.6881 1.1257
4060.00 1524.1086 1046.4866 34.6883 1.1241
4070.00 1524.2839 1046.5314 34.6884 1.1225
4080.00 1524.4592 1046.5762 34.6886 1.1209
4090.00 1524.6345 1046.6210 34.6887 1.1194
4100.00 1524.8098 1046.6658 34.6889 1.1178
4110.00 1524.9851 1046.7106 34.6890 1.1162
4120.00 1525.1603 1046.7554 34.6892 1.1146
4130.00 1525.3356 1046.8002 34.6893 1.1130
4140.00 1525.5109 1046.8449 34.6895 1.1114
4150.00 1525.6862 1046.8897 34.6896 1.1098
4160.00 1525.8615 1046.9345 34.6898 1.1083
4170.00 1526.0368 1046.9793 34.6899 1.1067
4180.00 1526.2120 1047.0241 34.6901 1.1051
4190.00 1526.3873 1047.0689 34.6902 1.1035
4200.00 1526.5626 1047.1137 34.6904 1.1019
4210.00 1526.7379 1047.1585 34.6905 1.1003
4220.00 1526.9132 1047.2033 34.6907 1.0987
4230.00 1527.0885 1047.2480 34.6908 1.0972
4240.00 1527.2638 1047.2928 34.6910 1.0956
4250.00 1527.4390 1047.3376 34.6912 1.0940
4260.00 1527.6143 1047.3824 34.6913 1.0924
4270.00 1527.7901 1047.4271 34.6915 1.0907
4280.00 1527.9661 1047.4716 34.6916 1.0890
4290.00 1528.1422 1047.5162 34.6918 1.0873
4300.00 1528.3183 1047.5607 34.6919 1.0856
4310.00 1528.4944 1047.6053 34.6920 1.0839
4320.00 1528.6705 1047.6498 34.6922 1.0822
4330.00 1528.8465 1047.6944 34.6923 1.0805
4340.00 1529.0226 1047.7389 34.6925 1.0787
4350.00 1529.1987 1047.7835 34.6926 1.0770
4360.00 1529.3748 1047.8281 34.6928 1.0753
4370.00 1529.5509 1047.8726 34.6929 1.0736
4380.00 1529.7269 1047.9172 34.6931 1.0719
4390.00 1529.9030 1047.9617 34.6932 1.0702
4400.00 1530.0791 1048.0063 34.6934 1.0685
4410.00 1530.2552 1048.0508 34.6935 1.0668
4420.00 1530.4313 1048.0954 34.6937 1.0650
4430.00 1530.6074 1048.1399 34.6938 1.0633
4440.00 1530.7834 1048.1845 34.6940 1.0616
4450.00 1530.9595 1048.2290 34.6941 1.0599
4460.00 1531.1356 1048.2736 34.6943 1.0582
4470.00 1531.3117 1048.3181 34.6944 1.0565
4480.00 1531.4878 1048.3627 34.6946 1.0548
4490.00 1531.6638 1048.4073 34.6947 1.0531
4500.00 1531.8399 1048.4518 34.6949 1.0513
4510.00 1532.0160 1048.4964 34.6950 1.0496
4520.00 1532.1921 1048.5409 34.6952 1.0479
4530.00 1532.3682 1048.5855 34.6953 1.0462
4540.00 1532.5442 1048.6300 34.6955 1.0445
4550.00 1532.7203 1048.6746 34.6956 1.0428
4560.00 1532.8964 1048.7191 34.6958 1.0411
4570.00 1533.0725 1048.7637 34.6959 1.0393
4580.00 1533.2486 1048.8082 34.6961 1.0376
4590.00 1533.4246 1048.8528 34.6962 1.0359
4600.00 1533.6007 1048.8973 34.6964 1.0342
4610.00 1533.7768 1048.9419 34.6965 1.0325
4620.00 1533.9529 1048.9864 34.6967 1.0308
4630.00 1534.1290 1049.0310 34.6968 1.0291
4640.00 1534.3051 1049.0756 34.6970 1.0274
4650.00 1534.4806 1049.1199 34.6971 1.0252
4660.00 1534.6562 1049.1643 34.6973 1.0231
4670.00 1534.8317 1049.2087 34.6975 1.0209
4680.00 1535.0072 1049.2531 34.6976 1.0188
4690.00 1535.1828 1049.2974 34.6978 1.0166
4700.00 1535.3583 1049.3418 34.6979 1.0145
4710.00 1535.5339 1049.3862 34.6981 1.0123
4720.00 1535.7094 1049.4306 34.6983 1.0102
4730.00 1535.8850 1049.4750 34.6984 1.0080
4740.00 1536.0605 1049.5193 34.6986 1.0059
4750.00 1536.2361 1049.5637 34.6987 1.0037
4760.00 1536.4116 1049.6081 34.6989 1.0016
4770.00 1536.5872 1049.6525 34.6991 0.9994
4780.00 1536.7627 1049.6968 34.6992 0.9973
4790.00 1536.9383 1049.7412 34.6994 0.9951
4800.00 1537.1138 1049.7856 34.6995 0.9930
4810.00 1537.2893 1049.8300 34.6997 0.9908
4820.00 1537.4649 1049.8744 34.6999 0.9887
4830.00 1537.6404 1049.9187 34.7000 0.9866
4840.00 1537.8160 1049.9631 34.7002 0.9844
4850.00 1537.9915 1050.0075 34.7003 0.9823
4860.00 1538.1671 1050.0519 34.7005 0.9801
4870.00 1538.3426 1050.0962 34.7007 0.9780
4880.00 1538.5182 1050.1406 34.7008 0.9758
4890.00 1538.6937 1050.1850 34.7010 0.9737
4900.00 1538.8693 1050.2294 34.7011 0.9715
4910.00 1539.0448 1050.2737 34.7013 0.9694
4920.00 1539.2204 1050.3181 34.7015 0.9672
4930.00 1539.3959 1050.3625 34.7016 0.9651
4940.00 1539.5715 1050.4069 34.7018 0.9629
4950.00 1539.7470 1050.4513 34.7019 0.9608
4960.00 1539.9225 1050.4956 34.7021 0.9586
4970.00 1540.0981 1050.5400 34.7023 0.9565
4980.00 1540.2736 1050.5844 34.7024 0.9543
4990.00 1540.4492 1050.6288 34.7026 0.9522
5000.00 1540.6247 1050.6731 34.7027 0.9500
5010.00 1540.8003 1050.7175 34.7029 0.9479
5020.00 1540.9758 1050.7619 34.7031 0.9457
5030.00 1541.1514 1050.8063 34.7032 0.9436
5040.00 1541.3272 1050.8506 34.7034 0.9415
5050.00 1541.5062 1050.8946 34.7035 0.9398
5060.00 1541.6852 1050.9386 34.7036 0.9381
5070.00 1541.8642 1050.9825 34.7037 0.9365
5080.00 1542.0432 1051.0265 34.7039 0.9348
5090.00 1542.2222 1051.0705 34.7040 0.9331
5100.00 1542.4012 1051.1145 34.7041 0.9314
5110.00 1542.5802 1051.1585 34.7042 0.9298
5120.00 1542.7592 1051.2024 34.7043 0.9281
5130.00 1542.9382 1051.2464 34.7045 0.9264
5140.00 1543.1171 1051.2904 34.7046 0.9247
5150.00 1543.2961 1051.3344 34.7047 0.9231
5160.00 1543.4751 1051.3783 34.7048 0.9214
5170.00 1543.6541 1051.4223 34.7049 0.9197
5180.00 1543.8331 1051.4663 34.7051 0.9180
5190.00 1544.0121 1051.5103 34.7052 0.9164
5200.00 1544.1911 1051.5542 34.7053 0.9147
5210.00 1544.3701 1051.5982 34.7054 0.9130
5220.00 1544.5491 1051.6422 34.7056 0.9113
5230.00 1544.7281 1051.6862 34.7057 0.9097
5240.00 1544.9071 1051.7301 34.7058 0.9080
5250.00 1545.0861 1051.7741 34.7059 0.9063
5260.00 1545.2651 1051.8181 34.7060 0.9046
5270.00 1545.4441 1051.8621 34.7062 0.9030
5280.00 1545.6231 1051.9060 34.7063 0.9013
5290.00 1545.8021 1051.9500 34.7064 0.8996
5300.00 1545.9811 1051.9940 34.7065 0.8979
5310.00 1546.1601 1052.0380 34.7066 0.8963
5320.00 1546.3391 1052.0819 34.7068 0.8946
5330.00 1546.5181 1052.1259 34.7069 0.8929
5340.00 1546.6971 1052.1699 34.7070 0.8912
5350.00 1546.8761 1052.2139 34.7071 0.8896
5360.00 1547.0551 1052.2578 34.7072 0.8879
5370.00 1547.2341 1052.3018 34.7074 0.8862
5380.00 1547.4131 1052.3458 34.7075 0.8845
5390.00 1547.5921 1052.3898 34.7076 0.8829
