# Averages over distance (i) for each depth (k):
# Depth(m) Speed(m/s) Density(kg/m^3) Salt PSU Theta(degC)
0.00 1543.2840 1022.5295 35.4866 28.7014
10.00 1543.4247 1022.5776 35.4870 28.6872
20.00 1543.5686 1022.6264 35.4888 28.6737
30.00 1543.7133 1022.6777 35.4933 28.6592
40.00 1543.8458 1022.7343 35.5015 28.6369
50.00 1543.9535 1022.7990 35.5143 28.6007
60.00 1544.0284 1022.8724 35.5311 28.5470
70.00 1544.0668 1022.9543 35.5509 28.4749
80.00 1544.0669 1023.0447 35.5737 28.3835
90.00 1544.0185 1023.1471 35.6015 28.2673
100.00 1543.8962 1023.2701 35.6397 28.1120
110.00 1543.6362 1023.4346 35.7009 27.8824
120.00 1543.0911 1023.6690 35.7934 27.5093
130.00 1542.0897 1023.9803 35.9011 26.9295
140.00 1540.5746 1024.3474 35.9961 26.1387
150.00 1538.2920 1024.7338 36.0186 25.0864
160.00 1535.5753 1025.1080 35.9906 23.9167
170.00 1532.5078 1025.4723 35.9218 22.6522
180.00 1529.0246 1025.7999 35.8086 21.3244
190.00 1525.4102 1026.1159 35.6813 19.9767
200.00 1521.8691 1026.3932 35.5553 18.7136
210.00 1518.3941 1026.6356 35.4305 17.5264
220.00 1514.9190 1026.8780 35.3056 16.3393
230.00 1512.1389 1027.0609 35.2125 15.4266
240.00 1509.6171 1027.2216 35.1312 14.6160
250.00 1507.0952 1027.3823 35.0499 13.8053
260.00 1504.8506 1027.5285 34.9790 13.0849
270.00 1503.4246 1027.6322 34.9386 12.6311
280.00 1501.9985 1027.7359 34.8982 12.1773
290.00 1500.5724 1027.8396 34.8577 11.7236
300.00 1499.1512 1027.9431 34.8175 11.2712
310.00 1498.4248 1028.0191 34.7991 11.0255
320.00 1497.6984 1028.0950 34.7808 10.7798
330.00 1496.9721 1028.1710 34.7624 10.5341
340.00 1496.2457 1028.2470 34.7440 10.2884
350.00 1495.5193 1028.3230 34.7257 10.0427
360.00 1495.0781 1028.3890 34.7155 9.8788
370.00 1494.6578 1028.4543 34.7059 9.7208
380.00 1494.2375 1028.5196 34.6963 9.5628
390.00 1493.8171 1028.5849 34.6867 9.4048
400.00 1493.3968 1028.6502 34.6771 9.2468
410.00 1492.9772 1028.7155 34.6675 9.0890
420.00 1492.6617 1028.7771 34.6611 8.9617
430.00 1492.3462 1028.8386 34.6546 8.8343
440.00 1492.0308 1028.9002 34.6482 8.7070
450.00 1491.7153 1028.9617 34.6417 8.5796
460.00 1491.3998 1029.0233 34.6353 8.4523
470.00 1491.0843 1029.0848 34.6288 8.3249
480.00 1490.7831 1029.1458 34.6228 8.2019
490.00 1490.5237 1029.2053 34.6181 8.0914
500.00 1490.2644 1029.2647 34.6134 7.9809
510.00 1490.0051 1029.3241 34.6087 7.8704
520.00 1489.7457 1029.3836 34.6040 7.7599
530.00 1489.4864 1029.4430 34.5993 7.6494
540.00 1489.2271 1029.5024 34.5946 7.5390
550.00 1488.9677 1029.5619 34.5899 7.4285
560.00 1488.7507 1029.6199 34.5864 7.3301
570.00 1488.5493 1029.6774 34.5832 7.2363
580.00 1488.3480 1029.7349 34.5800 7.1424
590.00 1488.1467 1029.7923 34.5768 7.0485
600.00 1487.9453 1029.8498 34.5736 6.9547
610.00 1487.7440 1029.9073 34.5705 6.8608
620.00 1487.5427 1029.9648 34.5673 6.7670
630.00 1487.3413 1030.0223 34.5641 6.6731
640.00 1487.1711 1030.0788 34.5617 6.5877
650.00 1487.0288 1030.1346 34.5598 6.5100
660.00 1486.8865 1030.1903 34.5580 6.4323
670.00 1486.7442 1030.2461 34.5562 6.3546
680.00 1486.6019 1030.3018 34.5544 6.2769
690.00 1486.4596 1030.3576 34.5526 6.1991
700.00 1486.3173 1030.4133 34.5507 6.1214
710.00 1486.1750 1030.4691 34.5489 6.0437
720.00 1486.0328 1030.5248 34.5471 5.9660
730.00 1485.9298 1030.5795 34.5461 5.8987
740.00 1485.8393 1030.6339 34.5454 5.8346
750.00 1485.7487 1030.6883 34.5446 5.7706
760.00 1485.6582 1030.7426 34.5439 5.7066
770.00 1485.5677 1030.7970 34.5432 5.6425
780.00 1485.4771 1030.8514 34.5425 5.5785
790.00 1485.3866 1030.9058 34.5417 5.5145
800.00 1485.2960 1030.9602 34.5410 5.4505
810.00 1485.2055 1031.0145 34.5403 5.3864
820.00 1485.1377 1031.0684 34.5400 5.3283
830.00 1485.0883 1031.1217 34.5401 5.2749
840.00 1485.0389 1031.1751 34.5401 5.2215
850.00 1484.9895 1031.2284 34.5402 5.1681
860.00 1484.9401 1031.2818 34.5402 5.1148
870.00 1484.8907 1031.3351 34.5403 5.0614
880.00 1484.8413 1031.3885 34.5404 5.0080
890.00 1484.7919 1031.4418 34.5404 4.9546
900.00 1484.7425 1031.4952 34.5405 4.9012
910.00 1484.6939 1031.5485 34.5406 4.8481
920.00 1484.6756 1031.6011 34.5412 4.8026
930.00 1484.6574 1031.6536 34.5417 4.7572
940.00 1484.6391 1031.7062 34.5423 4.7117
950.00 1484.6208 1031.7588 34.5429 4.6663
960.00 1484.6026 1031.8113 34.5435 4.6208
970.00 1484.5843 1031.8639 34.5440 4.5754
980.00 1484.5660 1031.9165 34.5446 4.5300
990.00 1484.5478 1031.9691 34.5452 4.4845
1000.00 1484.5295 1032.0216 34.5458 4.4391
1010.00 1484.5181 1032.0740 34.5464 4.3954
1020.00 1484.5241 1032.1259 34.5473 4.3560
1030.00 1484.5301 1032.1779 34.5482 4.3167
1040.00 1484.5361 1032.2298 34.5491 4.2774
1050.00 1484.5420 1032.2817 34.5500 4.2380
1060.00 1484.5480 1032.3337 34.5508 4.1987
1070.00 1484.5540 1032.3856 34.5517 4.1594
1080.00 1484.5600 1032.4375 34.5526 4.1200
1090.00 1484.5660 1032.4894 34.5535 4.0807
1100.00 1484.5719 1032.5414 34.5544 4.0414
1110.00 1484.5858 1032.5931 34.5553 4.0040
1120.00 1484.6111 1032.6445 34.5564 3.9695
1130.00 1484.6364 1032.6959 34.5574 3.9349
1140.00 1484.6616 1032.7472 34.5585 3.9004
1150.00 1484.6869 1032.7986 34.5596 3.8659
1160.00 1484.7122 1032.8500 34.5606 3.8313
1170.00 1484.7374 1032.9014 34.5617 3.7968
1180.00 1484.7627 1032.9528 34.5627 3.7623
1190.00 1484.7880 1033.0042 34.5638 3.7277
1200.00 1484.8133 1033.0556 34.5648 3.6932
1210.00 1484.8455 1033.1068 34.5659 3.6604
1220.00 1484.8865 1033.1577 34.5671 3.6297
1230.00 1484.9274 1033.2086 34.5682 3.5991
1240.00 1484.9684 1033.2596 34.5694 3.5684
1250.00 1485.0093 1033.3105 34.5705 3.5377
1260.00 1485.0503 1033.3614 34.5716 3.5070
1270.00 1485.0912 1033.4123 34.5728 3.4764
1280.00 1485.1322 1033.4632 34.5739 3.4457
1290.00 1485.1731 1033.5142 34.5751 3.4150
1300.00 1485.2141 1033.5651 34.5762 3.3843
1310.00 1485.2604 1033.6158 34.5774 3.3550
1320.00 1485.3154 1033.6663 34.5785 3.3277
1330.00 1485.3705 1033.7168 34.5797 3.3004
1340.00 1485.4255 1033.7673 34.5808 3.2732
1350.00 1485.4805 1033.8177 34.5820 3.2459
1360.00 1485.5356 1033.8682 34.5832 3.2187
1370.00 1485.5906 1033.9187 34.5843 3.1914
1380.00 1485.6456 1033.9692 34.5855 3.1641
1390.00 1485.7007 1034.0196 34.5867 3.1369
1400.00 1485.7557 1034.0701 34.5878 3.1096
1410.00 1485.8119 1034.1205 34.5890 3.0826
1420.00 1485.8813 1034.1705 34.5901 3.0588
1430.00 1485.9506 1034.2205 34.5912 3.0349
1440.00 1486.0199 1034.2705 34.5923 3.0111
1450.00 1486.0892 1034.3204 34.5935 2.9872
1460.00 1486.1585 1034.3704 34.5946 2.9634
1470.00 1486.2278 1034.4204 34.5957 2.9395
1480.00 1486.2972 1034.4704 34.5968 2.9157
1490.00 1486.3665 1034.5203 34.5980 2.8918
1500.00 1486.4358 1034.5703 34.5991 2.8680
1510.00 1486.5051 1034.6203 34.6002 2.8441
1520.00 1486.5789 1034.6701 34.6013 2.8213
1530.00 1486.6634 1034.7195 34.6023 2.8011
1540.00 1486.7480 1034.7689 34.6033 2.7808
1550.00 1486.8326 1034.8183 34.6044 2.7605
1560.00 1486.9171 1034.8677 34.6054 2.7402
1570.00 1487.0017 1034.9171 34.6064 2.7200
1580.00 1487.0862 1034.9664 34.6074 2.6997
1590.00 1487.1708 1035.0158 34.6085 2.6794
1600.00 1487.2554 1035.0652 34.6095 2.6592
1610.00 1487.3399 1035.1146 34.6105 2.6389
1620.00 1487.4245 1035.1640 34.6115 2.6186
1630.00 1487.5091 1035.2134 34.6125 2.5984
1640.00 1487.6027 1035.2625 34.6135 2.5802
1650.00 1487.7027 1035.3113 34.6144 2.5635
1660.00 1487.8028 1035.3601 34.6153 2.5468
1670.00 1487.9028 1035.4088 34.6161 2.5301
1680.00 1488.0029 1035.4576 34.6170 2.5134
1690.00 1488.1030 1035.5064 34.6179 2.4967
1700.00 1488.2030 1035.5552 34.6188 2.4801
1710.00 1488.3031 1035.6040 34.6197 2.4634
1720.00 1488.4032 1035.6528 34.6205 2.4467
1730.00 1488.5032 1035.7016 34.6214 2.4300
1740.00 1488.6033 1035.7504 34.6223 2.4133
1750.00 1488.7034 1035.7992 34.6232 2.3966
1760.00 1488.8034 1035.8480 34.6241 2.3799
1770.00 1488.9105 1035.8965 34.6249 2.3648
1780.00 1489.0248 1035.9447 34.6256 2.3514
1790.00 1489.1392 1035.9929 34.6263 2.3379
1800.00 1489.2535 1036.0411 34.6271 2.3245
1810.00 1489.3679 1036.0893 34.6278 2.3110
1820.00 1489.4823 1036.1375 34.6285 2.2976
1830.00 1489.5966 1036.1857 34.6293 2.2842
1840.00 1489.7110 1036.2340 34.6300 2.2707
1850.00 1489.8253 1036.2822 34.6307 2.2573
1860.00 1489.9397 1036.3304 34.6314 2.2438
1870.00 1490.0541 1036.3786 34.6322 2.2304
1880.00 1490.1684 1036.4268 34.6329 2.2169
1890.00 1490.2828 1036.4750 34.6336 2.2035
1900.00 1490.3972 1036.5232 34.6344 2.1900
1910.00 1490.5115 1036.5714 34.6351 2.1766
1920.00 1490.6330 1036.6193 34.6357 2.1647
1930.00 1490.7596 1036.6670 34.6363 2.1540
1940.00 1490.8862 1036.7147 34.6369 2.1433
1950.00 1491.0128 1036.7624 34.6375 2.1326
1960.00 1491.1394 1036.8100 34.6381 2.1218
1970.00 1491.2659 1036.8577 34.6387 2.1111
1980.00 1491.3925 1036.9054 34.6392 2.1004
1990.00 1491.5191 1036.9531 34.6398 2.0896
2000.00 1491.6457 1037.0008 34.6404 2.0789
2010.00 1491.7723 1037.0485 34.6410 2.0682
2020.00 1491.8989 1037.0961 34.6416 2.0574
2030.00 1492.0254 1037.1438 34.6422 2.0467
2040.00 1492.1520 1037.1915 34.6428 2.0360
2050.00 1492.2786 1037.2392 34.6433 2.0252
2060.00 1492.4052 1037.2869 34.6439 2.0145
2070.00 1492.5318 1037.3346 34.6445 2.0038
2080.00 1492.6584 1037.3823 34.6451 1.9930
2090.00 1492.7910 1037.4297 34.6456 1.9836
2100.00 1492.9277 1037.4769 34.6461 1.9750
2110.00 1493.0644 1037.5241 34.6466 1.9665
2120.00 1493.2011 1037.5713 34.6470 1.9579
2130.00 1493.3378 1037.6186 34.6475 1.9494
2140.00 1493.4745 1037.6658 34.6480 1.9408
2150.00 1493.6112 1037.7130 34.6484 1.9323
2160.00 1493.7479 1037.7602 34.6489 1.9237
2170.00 1493.8846 1037.8074 34.6494 1.9152
2180.00 1494.0213 1037.8547 34.6498 1.9066
2190.00 1494.1580 1037.9019 34.6503 1.8981
2200.00 1494.2947 1037.9491 34.6508 1.8895
2210.00 1494.4314 1037.9963 34.6512 1.8810
2220.00 1494.5681 1038.0436 34.6517 1.8724
2230.00 1494.7048 1038.0908 34.6522 1.8639
2240.00 1494.8416 1038.1380 34.6526 1.8553
2250.00 1494.9783 1038.1852 34.6531 1.8468
2260.00 1495.1150 1038.2325 34.6536 1.8382
2270.00 1495.2517 1038.2797 34.6540 1.8296
2280.00 1495.3915 1038.3267 34.6545 1.8217
2290.00 1495.5366 1038.3736 34.6548 1.8149
2300.00 1495.6816 1038.4204 34.6552 1.8081
2310.00 1495.8267 1038.4672 34.6556 1.8013
2320.00 1495.9717 1038.5140 34.6559 1.7944
2330.00 1496.1168 1038.5608 34.6563 1.7876
2340.00 1496.2618 1038.6076 34.6567 1.7808
2350.00 1496.4069 1038.6544 34.6571 1.7740
2360.00 1496.5519 1038.7012 34.6574 1.7672
2370.00 1496.6970 1038.7481 34.6578 1.7603
2380.00 1496.8420 1038.7949 34.6582 1.7535
2390.00 1496.9871 1038.8417 34.6585 1.7467
2400.00 1497.1321 1038.8885 34.6589 1.7399
2410.00 1497.2772 1038.9353 34.6593 1.7330
2420.00 1497.4222 1038.9821 34.6597 1.7262
2430.00 1497.5673 1039.0289 34.6600 1.7194
2440.00 1497.7123 1039.0757 34.6604 1.7126
2450.00 1497.8573 1039.1225 34.6608 1.7057
2460.00 1498.0024 1039.1694 34.6611 1.6989
2470.00 1498.1474 1039.2162 34.6615 1.6921
2480.00 1498.2925 1039.2630 34.6619 1.6853
2490.00 1498.4375 1039.3098 34.6623 1.6784
2500.00 1498.5886 1039.3563 34.6626 1.6728
2510.00 1498.7405 1039.4027 34.6629 1.6673
2520.00 1498.8924 1039.4492 34.6632 1.6619
2530.00 1499.0444 1039.4956 34.6635 1.6564
2540.00 1499.1963 1039.5420 34.6638 1.6509
2550.00 1499.3482 1039.5885 34.6641 1.6455
2560.00 1499.5001 1039.6349 34.6644 1.6400
2570.00 1499.6520 1039.6814 34.6646 1.6345
2580.00 1499.8040 1039.7278 34.6649 1.6291
2590.00 1499.9559 1039.7742 34.6652 1.6236
2600.00 1500.1078 1039.8207 34.6655 1.6181
2610.00 1500.2597 1039.8671 34.6658 1.6127
2620.00 1500.4117 1039.9136 34.6661 1.6072
2630.00 1500.5636 1039.9600 34.6664 1.6017
2640.00 1500.7155 1040.0064 34.6667 1.5963
2650.00 1500.8674 1040.0529 34.6670 1.5908
2660.00 1501.0193 1040.0993 34.6673 1.5853
2670.00 1501.1713 1040.1458 34.6676 1.5799
2680.00 1501.3232 1040.1922 34.6679 1.5744
2690.00 1501.4751 1040.2386 34.6682 1.5689
2700.00 1501.6270 1040.2851 34.6685 1.5635
2710.00 1501.7789 1040.3315 34.6688 1.5580
2720.00 1501.9309 1040.3780 34.6691 1.5525
2730.00 1502.0832 1040.4244 34.6694 1.5471
2740.00 1502.2406 1040.4705 34.6696 1.5427
2750.00 1502.3980 1040.5166 34.6699 1.5382
2760.00 1502.5553 1040.5627 34.6701 1.5338
2770.00 1502.7127 1040.6088 34.6704 1.5293
2780.00 1502.8701 1040.6549 34.6706 1.5248
2790.00 1503.0275 1040.7010 34.6709 1.5204
2800.00 1503.1849 1040.7471 34.6711 1.5159
2810.00 1503.3423 1040.7932 34.6714 1.5115
2820.00 1503.4997 1040.8393 34.6716 1.5070
2830.00 1503.6571 1040.8854 34.6718 1.5025
2840.00 1503.8144 1040.9315 34.6721 1.4981
2850.00 1503.9718 1040.9776 34.6723 1.4936
2860.00 1504.1292 1041.0238 34.6726 1.4891
2870.00 1504.2866 1041.0699 34.6728 1.4847
2880.00 1504.4440 1041.1160 34.6731 1.4802
2890.00 1504.6014 1041.1621 34.6733 1.4758
2900.00 1504.7588 1041.2082 34.6736 1.4713
2910.00 1504.9161 1041.2543 34.6738 1.4668
2920.00 1505.0735 1041.3004 34.6740 1.4624
2930.00 1505.2309 1041.3465 34.6743 1.4579
2940.00 1505.3883 1041.3926 34.6745 1.4535
2950.00 1505.5457 1041.4387 34.6748 1.4490
2960.00 1505.7031 1041.4848 34.6750 1.4445
2970.00 1505.8605 1041.5309 34.6753 1.4401
2980.00 1506.0179 1041.5770 34.6755 1.4356
2990.00 1506.1752 1041.6231 34.6757 1.4312
3000.00 1506.3365 1041.6690 34.6760 1.4273
3010.00 1506.4979 1041.7148 34.6762 1.4235
3020.00 1506.6593 1041.7606 34.6764 1.4197
3030.00 1506.8206 1041.8064 34.6766 1.4159
3040.00 1506.9820 1041.8522 34.6768 1.4121
3050.00 1507.1434 1041.8981 34.6770 1.4082
3060.00 1507.3047 1041.9439 34.6772 1.4044
3070.00 1507.4661 1041.9897 34.6775 1.4006
3080.00 1507.6275 1042.0355 34.6777 1.3968
3090.00 1507.7889 1042.0813 34.6779 1.3930
3100.00 1507.9502 1042.1272 34.6781 1.3892
3110.00 1508.1116 1042.1730 34.6783 1.3853
3120.00 1508.2730 1042.2188 34.6785 1.3815
3130.00 1508.4343 1042.2646 34.6787 1.3777
3140.00 1508.5957 1042.3104 34.6790 1.3739
3150.00 1508.7571 1042.3563 34.6792 1.3701
3160.00 1508.9185 1042.4021 34.6794 1.3662
3170.00 1509.0798 1042.4479 34.6796 1.3624
3180.00 1509.2412 1042.4937 34.6798 1.3586
3190.00 1509.4026 1042.5395 34.6800 1.3548
3200.00 1509.5639 1042.5854 34.6802 1.3510
3210.00 1509.7253 1042.6312 34.6805 1.3472
3220.00 1509.8867 1042.6770 34.6807 1.3433
3230.00 1510.0481 1042.7228 34.6809 1.3395
3240.00 1510.2094 1042.7686 34.6811 1.3357
3250.00 1510.3708 1042.8144 34.6813 1.3319
3260.00 1510.5322 1042.8603 34.6815 1.3281
3270.00 1510.6935 1042.9061 34.6817 1.3243
3280.00 1510.8564 1042.9518 34.6820 1.3206
3290.00 1511.0205 1042.9973 34.6822 1.3171
3300.00 1511.1845 1043.0429 34.6824 1.3136
3310.00 1511.3485 1043.0885 34.6826 1.3101
3320.00 1511.5125 1043.1341 34.6828 1.3066
3330.00 1511.6766 1043.1796 34.6830 1.3031
3340.00 1511.8406 1043.2252 34.6832 1.2997
3350.00 1512.0046 1043.2708 34.6834 1.2962
3360.00 1512.1686 1043.3164 34.6836 1.2927
3370.00 1512.3327 1043.3620 34.6838 1.2892
3380.00 1512.4967 1043.4075 34.6840 1.2857
3390.00 1512.6607 1043.4531 34.6842 1.2822
3400.00 1512.8247 1043.4987 34.6844 1.2787
3410.00 1512.9888 1043.5443 34.6846 1.2752
3420.00 1513.1528 1043.5898 34.6848 1.2717
3430.00 1513.3168 1043.6354 34.6850 1.2682
3440.00 1513.4808 1043.6810 34.6852 1.2647
3450.00 1513.6448 1043.7266 34.6854 1.2612
3460.00 1513.8089 1043.7721 34.6856 1.2577
3470.00 1513.9729 1043.8177 34.6859 1.2542
3480.00 1514.1369 1043.8633 34.6861 1.2507
3490.00 1514.3009 1043.9089 34.6863 1.2472
3500.00 1514.4650 1043.9545 34.6865 1.2437
3510.00 1514.6290 1044.0000 34.6867 1.2402
3520.00 1514.7930 1044.0456 34.6869 1.2367
3530.00 1514.9570 1044.0912 34.6871 1.2332
3540.00 1515.1211 1044.1368 34.6873 1.2297
3550.00 1515.2851 1044.1823 34.6875 1.2262
3560.00 1515.4491 1044.2279 34.6877 1.2227
3570.00 1515.6131 1044.2735 34.6879 1.2192
3580.00 1515.7772 1044.3191 34.6881 1.2157
3590.00 1515.9419 1044.3645 34.6883 1.2122
3600.00 1516.1068 1044.4099 34.6885 1.2085
3610.00 1516.2716 1044.4553 34.6888 1.2049
3620.00 1516.4365 1044.5007 34.6890 1.2013
3630.00 1516.6014 1044.5461 34.6892 1.1977
3640.00 1516.7662 1044.5915 34.6894 1.1941
3650.00 1516.9311 1044.6369 34.6896 1.1905
3660.00 1517.0960 1044.6823 34.6899 1.1869
3670.00 1517.2608 1044.7277 34.6901 1.1833
3680.00 1517.4257 1044.7731 34.6903 1.1797
3690.00 1517.5906 1044.8185 34.6905 1.1761
3700.00 1517.7554 1044.8640 34.6907 1.1725
3710.00 1517.9203 1044.9094 34.6910 1.1689
3720.00 1518.0852 1044.9548 34.6912 1.1653
3730.00 1518.2500 1045.0002 34.6914 1.1617
3740.00 1518.4149 1045.0456 34.6916 1.1581
3750.00 1518.5798 1045.0910 34.6918 1.1545
3760.00 1518.7446 1045.1364 34.6921 1.1509
3770.00 1518.9095 1045.1818 34.6923 1.1473
3780.00 1519.0744 1045.2272 34.6925 1.1437
3790.00 1519.2392 1045.2726 34.6927 1.1401
3800.00 1519.4041 1045.3180 34.6930 1.1365
3810.00 1519.5690 1045.3634 34.6932 1.1329
3820.00 1519.7338 1045.4088 34.6934 1.1293
3830.00 1519.8987 1045.4542 34.6936 1.1257
3840.00 1520.0636 1045.4996 34.6938 1.1221
3850.00 1520.2284 1045.5450 34.6941 1.1185
3860.00 1520.3933 1045.5904 34.6943 1.1149
3870.00 1520.5582 1045.6358 34.6945 1.1113
3880.00 1520.7230 1045.6812 34.6947 1.1077
3890.00 1520.8879 1045.7267 34.6949 1.1041
3900.00 1521.0528 1045.7721 34.6952 1.1005
3910.00 1521.2176 1045.8175 34.6954 1.0969
3920.00 1521.3821 1045.8628 34.6956 1.0929
3930.00 1521.5466 1045.9080 34.6959 1.0889
3940.00 1521.7111 1045.9533 34.6961 1.0849
3950.00 1521.8756 1045.9986 34.6964 1.0809
3960.00 1522.0400 1046.0439 34.6966 1.0769
3970.00 1522.2045 1046.0892 34.6969 1.0729
3980.00 1522.3690 1046.1345 34.6971 1.0689
3990.00 1522.5334 1046.1797 34.6973 1.0649
4000.00 1522.6979 1046.2250 34.6976 1.0609
4010.00 1522.8624 1046.2703 34.6978 1.0569
4020.00 1523.0269 1046.3156 34.6981 1.0529
4030.00 1523.1913 1046.3609 34.6983 1.0489
4040.00 1523.3558 1046.4061 34.6986 1.0449
4050.00 1523.5203 1046.4514 34.6988 1.0409
4060.00 1523.6847 1046.4967 34.6991 1.0369
4070.00 1523.8492 1046.5420 34.6993 1.0329
4080.00 1524.0137 1046.5873 34.6996 1.0289
4090.00 1524.1782 1046.6325 34.6998 1.0249
4100.00 1524.3426 1046.6778 34.7001 1.0209
4110.00 1524.5071 1046.7231 34.7003 1.0169
4120.00 1524.6716 1046.7684 34.7006 1.0129
4130.00 1524.8360 1046.8137 34.7008 1.0089
4140.00 1525.0005 1046.8590 34.7011 1.0049
4150.00 1525.1650 1046.9042 34.7013 1.0009
4160.00 1525.3295 1046.9495 34.7015 0.9969
4170.00 1525.4939 1046.9948 34.7018 0.9929
4180.00 1525.6584 1047.0401 34.7020 0.9889
4190.00 1525.8229 1047.0854 34.7023 0.9849
4200.00 1525.9873 1047.1306 34.7025 0.9809
4210.00 1526.1518 1047.1759 34.7028 0.9769
4220.00 1526.3163 1047.2212 34.7030 0.9729
4230.00 1526.4808 1047.2665 34.7033 0.9689
4240.00 1526.6452 1047.3118 34.7035 0.9649
4250.00 1526.8097 1047.3571 34.7038 0.9609
4260.00 1526.9742 1047.4023 34.7040 0.9569
4270.00 1527.1373 1047.4476 34.7043 0.9525
4280.00 1527.2994 1047.4928 34.7045 0.9476
4290.00 1527.4614 1047.5380 34.7048 0.9428
4300.00 1527.6235 1047.5833 34.7050 0.9379
4310.00 1527.7856 1047.6285 34.7053 0.9331
4320.00 1527.9477 1047.6737 34.7055 0.9282
4330.00 1528.1098 1047.7189 34.7058 0.9234
4340.00 1528.2719 1047.7641 34.7060 0.9185
4350.00 1528.4340 1047.8094 34.7063 0.9137
4360.00 1528.5961 1047.8546 34.7066 0.9088
4370.00 1528.7582 1047.8998 34.7068 0.9040
4380.00 1528.9203 1047.9450 34.7071 0.8991
4390.00 1529.0824 1047.9903 34.7073 0.8943
4400.00 1529.2444 1048.0355 34.7076 0.8894
4410.00 1529.4065 1048.0807 34.7078 0.8846
4420.00 1529.5686 1048.1259 34.7081 0.8798
4430.00 1529.7307 1048.1711 34.7083 0.8749
4440.00 1529.8928 1048.2164 34.7086 0.8701
4450.00 1530.0549 1048.2616 34.7088 0.8652
4460.00 1530.2170 1048.3068 34.7091 0.8604
4470.00 1530.3791 1048.3520 34.7093 0.8555
4480.00 1530.5412 1048.3973 34.7096 0.8507
4490.00 1530.7033 1048.4425 34.7098 0.8458
4500.00 1530.8653 1048.4877 34.7101 0.8410
4510.00 1531.0274 1048.5329 34.7104 0.8361
4520.00 1531.1895 1048.5781 34.7106 0.8313
4530.00 1531.3516 1048.6234 34.7109 0.8264
4540.00 1531.5137 1048.6686 34.7111 0.8216
4550.00 1531.6758 1048.7138 34.7114 0.8167
4560.00 1531.8379 1048.7590 34.7116 0.8119
4570.00 1532.0000 1048.8043 34.7119 0.8071
4580.00 1532.1621 1048.8495 34.7121 0.8022
4590.00 1532.3242 1048.8947 34.7124 0.7974
4600.00 1532.4863 1048.9399 34.7126 0.7925
4610.00 1532.6483 1048.9851 34.7129 0.7877
4620.00 1532.8104 1049.0304 34.7131 0.7828
4630.00 1532.9725 1049.0756 34.7134 0.7780
4640.00 1533.1346 1049.1208 34.7136 0.7731
4650.00 1533.3045 1049.1654 34.7138 0.7697
4660.00 1533.4746 1049.2100 34.7139 0.7664
4670.00 1533.6447 1049.2547 34.7140 0.7630
4680.00 1533.8149 1049.2993 34.7141 0.7597
4690.00 1533.9850 1049.3439 34.7142 0.7564
4700.00 1534.1551 1049.3885 34.7144 0.7530
4710.00 1534.3252 1049.4331 34.7145 0.7497
4720.00 1534.4953 1049.4777 34.7146 0.7463
4730.00 1534.6654 1049.5223 34.7147 0.7430
4740.00 1534.8355 1049.5669 34.7148 0.7396
4750.00 1535.0056 1049.6115 34.7149 0.7363
4760.00 1535.1757 1049.6561 34.7151 0.7329
4770.00 1535.3459 1049.7007 34.7152 0.7296
4780.00 1535.5160 1049.7454 34.7153 0.7262
4790.00 1535.6861 1049.7900 34.7154 0.7229
4800.00 1535.8562 1049.8346 34.7155 0.7195
4810.00 1536.0263 1049.8792 34.7156 0.7162
4820.00 1536.1964 1049.9238 34.7157 0.7128
4830.00 1536.3665 1049.9684 34.7159 0.7095
4840.00 1536.5366 1050.0130 34.7160 0.7061
4850.00 1536.7067 1050.0576 34.7161 0.7028
4860.00 1536.8768 1050.1022 34.7162 0.6994
4870.00 1537.0470 1050.1468 34.7163 0.6961
4880.00 1537.2171 1050.1914 34.7164 0.6928
4890.00 1537.3872 1050.2361 34.7166 0.6894
4900.00 1537.5573 1050.2807 34.7167 0.6861
4910.00 1537.7274 1050.3253 34.7168 0.6827
4920.00 1537.8975 1050.3699 34.7169 0.6794
4930.00 1538.0676 1050.4145 34.7170 0.6760
4940.00 1538.2377 1050.4591 34.7171 0.6727
4950.00 1538.4078 1050.5037 34.7173 0.6693
4960.00 1538.5780 1050.5483 34.7174 0.6660
4970.00 1538.7481 1050.5929 34.7175 0.6626
4980.00 1538.9182 1050.6375 34.7176 0.6593
4990.00 1539.0883 1050.6821 34.7177 0.6559
5000.00 1539.2584 1050.7268 34.7178 0.6526
5010.00 1539.4285 1050.7714 34.7180 0.6492
5020.00 1539.5986 1050.8160 34.7181 0.6459
5030.00 1539.7687 1050.8606 34.7182 0.6425
5040.00 1539.9401 1050.9051 34.7183 0.6395
5050.00 1540.1264 1050.9487 34.7183 0.6395
5060.00 1540.3128 1050.9923 34.7183 0.6395
5070.00 1540.4991 1051.0359 34.7183 0.6395
5080.00 1540.6855 1051.0795 34.7183 0.6395
