# Averages over distance (i) for each depth (k):
# Depth(m) Speed(m/s) Density(kg/m^3) Salt PSU Theta(degC)
0.00 1528.6791 1024.4996 35.5354 22.4540
10.00 1528.7715 1024.5535 35.5372 22.4228
20.00 1528.6900 1024.6295 35.5423 22.3228
30.00 1528.2782 1024.7442 35.5507 22.0941
40.00 1527.6563 1024.8797 35.5579 21.7871
50.00 1526.9920 1025.0165 35.5632 21.4674
60.00 1526.3567 1025.1473 35.5668 21.1623
70.00 1525.7450 1025.2728 35.5687 20.8694
80.00 1525.1409 1025.3953 35.5695 20.5822
90.00 1524.5516 1025.5143 35.5696 20.3031
100.00 1523.9956 1025.6284 35.5689 20.0386
110.00 1523.4797 1025.7370 35.5675 19.7909
120.00 1522.9991 1025.8408 35.5656 19.5577
130.00 1522.5454 1025.9409 35.5631 19.3359
140.00 1522.1107 1026.0379 35.5598 19.1223
150.00 1521.7092 1026.1299 35.5553 18.9227
160.00 1521.3290 1026.2187 35.5499 18.7318
170.00 1520.9659 1026.3049 35.5436 18.5480
180.00 1520.6113 1026.3880 35.5355 18.3695
190.00 1520.2593 1026.4700 35.5267 18.1925
200.00 1519.8754 1026.5520 35.5155 18.0069
210.00 1519.4627 1026.6340 35.5021 17.8135
220.00 1519.0500 1026.7160 35.4887 17.6200
230.00 1518.5131 1026.8015 35.4693 17.3903
240.00 1517.9301 1026.8882 35.4476 17.1469
250.00 1517.3471 1026.9750 35.4260 16.9036
260.00 1516.6974 1027.0634 35.4015 16.6416
270.00 1515.8507 1027.1568 35.3688 16.3245
280.00 1515.0041 1027.2502 35.3360 16.0073
290.00 1514.1574 1027.3435 35.3033 15.6901
300.00 1513.3093 1027.4369 35.2705 15.3726
310.00 1512.2464 1027.5313 35.2302 15.0048
320.00 1511.1836 1027.6257 35.1899 14.6370
330.00 1510.1208 1027.7201 35.1496 14.2692
340.00 1509.0580 1027.8144 35.1094 13.9014
350.00 1507.9952 1027.9088 35.0691 13.5336
360.00 1506.9311 1027.9950 35.0303 13.1826
370.00 1505.8669 1028.0807 34.9916 12.8328
380.00 1504.8028 1028.1663 34.9530 12.4831
390.00 1503.7386 1028.2519 34.9143 12.1333
400.00 1502.6744 1028.3376 34.8757 11.7835
410.00 1501.6118 1028.4231 34.8371 11.4343
420.00 1500.7645 1028.4958 34.8075 11.1598
430.00 1499.9172 1028.5684 34.7779 10.8853
440.00 1499.0699 1028.6411 34.7483 10.6108
450.00 1498.2226 1028.7137 34.7187 10.3363
460.00 1497.3753 1028.7864 34.6891 10.0618
470.00 1496.5280 1028.8590 34.6595 9.7873
480.00 1495.7523 1028.9291 34.6325 9.5341
490.00 1495.1883 1028.9917 34.6133 9.3437
500.00 1494.6242 1029.0543 34.5941 9.1533
510.00 1494.0602 1029.1168 34.5748 8.9629
520.00 1493.4961 1029.1794 34.5556 8.7725
530.00 1492.9320 1029.2420 34.5364 8.5821
540.00 1492.3680 1029.3046 34.5172 8.3917
550.00 1491.8039 1029.3671 34.4980 8.2013
560.00 1491.4080 1029.4256 34.4847 8.0571
570.00 1491.0746 1029.4826 34.4736 7.9300
580.00 1490.7412 1029.5395 34.4625 7.8030
590.00 1490.4077 1029.5965 34.4514 7.6759
600.00 1490.0743 1029.6535 34.4403 7.5489
610.00 1489.7409 1029.7104 34.4292 7.4218
620.00 1489.4075 1029.7674 34.4181 7.2947
630.00 1489.0740 1029.8244 34.4070 7.1677
640.00 1488.8159 1029.8801 34.3987 7.0604
650.00 1488.6255 1029.9348 34.3929 6.9709
660.00 1488.4351 1029.9895 34.3872 6.8814
670.00 1488.2447 1030.0441 34.3814 6.7919
680.00 1488.0543 1030.0988 34.3757 6.7024
690.00 1487.8639 1030.1535 34.3699 6.6129
700.00 1487.6735 1030.2081 34.3642 6.5233
710.00 1487.4831 1030.2628 34.3584 6.4338
720.00 1487.2927 1030.3175 34.3527 6.3443
730.00 1487.1528 1030.3720 34.3495 6.2678
740.00 1487.0288 1030.4264 34.3471 6.1954
750.00 1486.9048 1030.4809 34.3448 6.1230
760.00 1486.7808 1030.5354 34.3424 6.0506
770.00 1486.6568 1030.5898 34.3400 5.9782
780.00 1486.5328 1030.6443 34.3377 5.9058
790.00 1486.4088 1030.6987 34.3353 5.8334
800.00 1486.2847 1030.7532 34.3329 5.7610
810.00 1486.1607 1030.8076 34.3306 5.6885
820.00 1486.0526 1030.8625 34.3296 5.6202
830.00 1485.9574 1030.9176 34.3297 5.5552
840.00 1485.8622 1030.9727 34.3298 5.4902
850.00 1485.7669 1031.0278 34.3299 5.4252
860.00 1485.6717 1031.0829 34.3300 5.3602
870.00 1485.5764 1031.1380 34.3301 5.2952
880.00 1485.4812 1031.1931 34.3302 5.2302
890.00 1485.3860 1031.2482 34.3302 5.1652
900.00 1485.2907 1031.3033 34.3303 5.1002
910.00 1485.1961 1031.3584 34.3305 5.0354
920.00 1485.1256 1031.4139 34.3325 4.9767
930.00 1485.0552 1031.4694 34.3345 4.9180
940.00 1484.9847 1031.5250 34.3364 4.8593
950.00 1484.9142 1031.5805 34.3384 4.8006
960.00 1484.8437 1031.6361 34.3404 4.7420
970.00 1484.7732 1031.6916 34.3424 4.6833
980.00 1484.7027 1031.7472 34.3444 4.6246
990.00 1484.6322 1031.8027 34.3464 4.5659
1000.00 1484.5617 1031.8582 34.3483 4.5072
1010.00 1484.4998 1031.9138 34.3507 4.4506
1020.00 1484.4593 1031.9692 34.3540 4.3994
1030.00 1484.4187 1032.0247 34.3573 4.3482
1040.00 1484.3782 1032.0801 34.3606 4.2970
1050.00 1484.3377 1032.1355 34.3639 4.2458
1060.00 1484.2972 1032.1910 34.3671 4.1946
1070.00 1484.2567 1032.2464 34.3704 4.1433
1080.00 1484.2162 1032.3019 34.3737 4.0921
1090.00 1484.1756 1032.3573 34.3770 4.0409
1100.00 1484.1351 1032.4128 34.3803 3.9897
1110.00 1484.1071 1032.4680 34.3839 3.9415
1120.00 1484.0971 1032.5231 34.3880 3.8978
1130.00 1484.0870 1032.5781 34.3921 3.8541
1140.00 1484.0770 1032.6331 34.3962 3.8103
1150.00 1484.0670 1032.6881 34.4003 3.7666
1160.00 1484.0570 1032.7431 34.4044 3.7228
1170.00 1484.0470 1032.7981 34.4084 3.6791
1180.00 1484.0369 1032.8531 34.4125 3.6354
1190.00 1484.0269 1032.9081 34.4166 3.5916
1200.00 1484.0169 1032.9632 34.4207 3.5479
1210.00 1484.0199 1033.0178 34.4249 3.5073
1220.00 1484.0390 1033.0722 34.4293 3.4706
1230.00 1484.0581 1033.1265 34.4337 3.4339
1240.00 1484.0771 1033.1808 34.4381 3.3972
1250.00 1484.0962 1033.2351 34.4425 3.3606
1260.00 1484.1153 1033.2894 34.4469 3.3239
1270.00 1484.1344 1033.3437 34.4513 3.2872
1280.00 1484.1535 1033.3980 34.4557 3.2505
1290.00 1484.1726 1033.4523 34.4601 3.2138
1300.00 1484.1917 1033.5066 34.4645 3.1771
1310.00 1484.2219 1033.5605 34.4689 3.1431
1320.00 1484.2701 1033.6137 34.4731 3.1135
1330.00 1484.3184 1033.6669 34.4773 3.0838
1340.00 1484.3667 1033.7202 34.4815 3.0542
1350.00 1484.4149 1033.7734 34.4857 3.0245
1360.00 1484.4632 1033.8266 34.4899 2.9949
1370.00 1484.5114 1033.8798 34.4941 2.9652
1380.00 1484.5597 1033.9331 34.4983 2.9356
1390.00 1484.6080 1033.9863 34.5025 2.9059
1400.00 1484.6562 1034.0395 34.5067 2.8763
1410.00 1484.7070 1034.0926 34.5109 2.8472
1420.00 1484.7846 1034.1444 34.5144 2.8246
1430.00 1484.8621 1034.1962 34.5180 2.8020
1440.00 1484.9397 1034.2480 34.5215 2.7794
1450.00 1485.0173 1034.2998 34.5251 2.7567
1460.00 1485.0948 1034.3516 34.5286 2.7341
1470.00 1485.1724 1034.4034 34.5322 2.7115
1480.00 1485.2500 1034.4552 34.5357 2.6889
1490.00 1485.3275 1034.5070 34.5393 2.6663
1500.00 1485.4051 1034.5588 34.5428 2.6437
1510.00 1485.4827 1034.6106 34.5464 2.6211
1520.00 1485.5678 1034.6620 34.5497 2.6003
1530.00 1485.6715 1034.7122 34.5524 2.5839
1540.00 1485.7751 1034.7625 34.5551 2.5676
1550.00 1485.8788 1034.8128 34.5577 2.5512
1560.00 1485.9824 1034.8631 34.5604 2.5348
1570.00 1486.0861 1034.9133 34.5631 2.5185
1580.00 1486.1897 1034.9636 34.5658 2.5021
1590.00 1486.2934 1035.0139 34.5685 2.4857
1600.00 1486.3970 1035.0641 34.5712 2.4694
1610.00 1486.5007 1035.1144 34.5738 2.4530
1620.00 1486.6043 1035.1647 34.5765 2.4366
1630.00 1486.7080 1035.2150 34.5792 2.4203
1640.00 1486.8229 1035.2645 34.5814 2.4066
1650.00 1486.9459 1035.3135 34.5833 2.3948
1660.00 1487.0689 1035.3625 34.5851 2.3831
1670.00 1487.1920 1035.4115 34.5870 2.3713
1680.00 1487.3150 1035.4605 34.5889 2.3596
1690.00 1487.4380 1035.5095 34.5907 2.3478
1700.00 1487.5610 1035.5585 34.5926 2.3360
1710.00 1487.6840 1035.6075 34.5945 2.3243
1720.00 1487.8070 1035.6565 34.5963 2.3125
1730.00 1487.9300 1035.7055 34.5982 2.3007
1740.00 1488.0530 1035.7546 34.6001 2.2890
1750.00 1488.1761 1035.8036 34.6019 2.2772
1760.00 1488.2991 1035.8526 34.6038 2.2655
1770.00 1488.4279 1035.9011 34.6054 2.2551
1780.00 1488.5630 1035.9492 34.6066 2.2461
1790.00 1488.6980 1035.9973 34.6079 2.2372
1800.00 1488.8331 1036.0454 34.6091 2.2282
1810.00 1488.9681 1036.0935 34.6104 2.2193
1820.00 1489.1031 1036.1416 34.6116 2.2104
1830.00 1489.2382 1036.1897 34.6129 2.2014
1840.00 1489.3732 1036.2378 34.6142 2.1925
1850.00 1489.5083 1036.2859 34.6154 2.1835
1860.00 1489.6433 1036.3341 34.6167 2.1746
1870.00 1489.7784 1036.3822 34.6179 2.1656
1880.00 1489.9134 1036.4303 34.6192 2.1567
1890.00 1490.0484 1036.4784 34.6205 2.1477
1900.00 1490.1835 1036.5265 34.6217 2.1388
1910.00 1490.3185 1036.5746 34.6230 2.1298
1920.00 1490.4577 1036.6223 34.6240 2.1218
1930.00 1490.5997 1036.6698 34.6249 2.1145
1940.00 1490.7418 1036.7173 34.6257 2.1071
1950.00 1490.8839 1036.7649 34.6266 2.0997
1960.00 1491.0259 1036.8124 34.6275 2.0924
1970.00 1491.1680 1036.8599 34.6283 2.0850
1980.00 1491.3101 1036.9074 34.6292 2.0776
1990.00 1491.4521 1036.9549 34.6301 2.0703
2000.00 1491.5942 1037.0024 34.6309 2.0629
2010.00 1491.7363 1037.0499 34.6318 2.0555
2020.00 1491.8783 1037.0974 34.6326 2.0482
2030.00 1492.0204 1037.1449 34.6335 2.0408
2040.00 1492.1625 1037.1925 34.6344 2.0334
2050.00 1492.3045 1037.2400 34.6352 2.0261
2060.00 1492.4466 1037.2875 34.6361 2.0187
2070.00 1492.5887 1037.3350 34.6370 2.0113
2080.00 1492.7307 1037.3825 34.6378 2.0040
2090.00 1492.8755 1037.4298 34.6386 1.9972
2100.00 1493.0222 1037.4769 34.6392 1.9907
2110.00 1493.1689 1037.5240 34.6398 1.9843
2120.00 1493.3155 1037.5711 34.6404 1.9779
2130.00 1493.4622 1037.6182 34.6411 1.9715
2140.00 1493.6088 1037.6653 34.6417 1.9651
2150.00 1493.7555 1037.7124 34.6423 1.9587
2160.00 1493.9021 1037.7595 34.6429 1.9523
2170.00 1494.0488 1037.8066 34.6436 1.9458
2180.00 1494.1955 1037.8537 34.6442 1.9394
2190.00 1494.3421 1037.9008 34.6448 1.9330
2200.00 1494.4888 1037.9479 34.6454 1.9266
2210.00 1494.6354 1037.9950 34.6461 1.9202
2220.00 1494.7821 1038.0421 34.6467 1.9138
2230.00 1494.9288 1038.0892 34.6473 1.9073
2240.00 1495.0754 1038.1363 34.6480 1.9009
2250.00 1495.2221 1038.1834 34.6486 1.8945
2260.00 1495.3687 1038.2305 34.6492 1.8881
2270.00 1495.5154 1038.2776 34.6498 1.8817
2280.00 1495.6634 1038.3246 34.6504 1.8755
2290.00 1495.8137 1038.3714 34.6509 1.8698
2300.00 1495.9639 1038.4182 34.6514 1.8640
2310.00 1496.1142 1038.4650 34.6519 1.8583
2320.00 1496.2645 1038.5117 34.6524 1.8525
2330.00 1496.4147 1038.5585 34.6529 1.8468
2340.00 1496.5650 1038.6053 34.6534 1.8410
2350.00 1496.7153 1038.6521 34.6539 1.8353
2360.00 1496.8655 1038.6989 34.6544 1.8296
2370.00 1497.0158 1038.7457 34.6549 1.8238
2380.00 1497.1661 1038.7925 34.6553 1.8181
2390.00 1497.3163 1038.8393 34.6558 1.8123
2400.00 1497.4666 1038.8861 34.6563 1.8066
2410.00 1497.6168 1038.9329 34.6568 1.8008
2420.00 1497.7671 1038.9797 34.6573 1.7951
2430.00 1497.9174 1039.0265 34.6578 1.7893
2440.00 1498.0676 1039.0733 34.6583 1.7836
2450.00 1498.2179 1039.1201 34.6588 1.7778
2460.00 1498.3682 1039.1668 34.6593 1.7721
2470.00 1498.5184 1039.2136 34.6598 1.7663
2480.00 1498.6687 1039.2604 34.6603 1.7606
2490.00 1498.8190 1039.3072 34.6608 1.7549
2500.00 1498.9720 1039.3538 34.6612 1.7496
2510.00 1499.1254 1039.4003 34.6617 1.7443
2520.00 1499.2788 1039.4469 34.6621 1.7391
2530.00 1499.4322 1039.4934 34.6625 1.7339
2540.00 1499.5856 1039.5400 34.6630 1.7287
2550.00 1499.7390 1039.5865 34.6634 1.7234
2560.00 1499.8925 1039.6330 34.6638 1.7182
2570.00 1500.0459 1039.6796 34.6642 1.7130
2580.00 1500.1993 1039.7261 34.6647 1.7078
2590.00 1500.3527 1039.7727 34.6651 1.7025
2600.00 1500.5061 1039.8192 34.6655 1.6973
2610.00 1500.6595 1039.8658 34.6660 1.6921
2620.00 1500.8129 1039.9123 34.6664 1.6868
2630.00 1500.9664 1039.9588 34.6668 1.6816
2640.00 1501.1198 1040.0054 34.6673 1.6764
2650.00 1501.2732 1040.0519 34.6677 1.6712
2660.00 1501.4266 1040.0985 34.6681 1.6659
2670.00 1501.5800 1040.1450 34.6686 1.6607
2680.00 1501.7334 1040.1915 34.6690 1.6555
2690.00 1501.8868 1040.2381 34.6694 1.6503
2700.00 1502.0402 1040.2846 34.6699 1.6450
2710.00 1502.1937 1040.3312 34.6703 1.6398
2720.00 1502.3471 1040.3777 34.6707 1.6346
2730.00 1502.5007 1040.4242 34.6712 1.6294
2740.00 1502.6570 1040.4705 34.6716 1.6246
2750.00 1502.8133 1040.5169 34.6720 1.6198
2760.00 1502.9696 1040.5632 34.6724 1.6150
2770.00 1503.1259 1040.6095 34.6728 1.6102
2780.00 1503.2823 1040.6558 34.6732 1.6054
2790.00 1503.4386 1040.7021 34.6736 1.6006
2800.00 1503.5949 1040.7484 34.6740 1.5958
2810.00 1503.7512 1040.7947 34.6744 1.5910
2820.00 1503.9075 1040.8410 34.6748 1.5862
2830.00 1504.0638 1040.8873 34.6752 1.5814
2840.00 1504.2201 1040.9336 34.6756 1.5766
2850.00 1504.3764 1040.9799 34.6760 1.5718
2860.00 1504.5327 1041.0263 34.6764 1.5670
2870.00 1504.6891 1041.0726 34.6768 1.5622
2880.00 1504.8454 1041.1189 34.6772 1.5574
2890.00 1505.0017 1041.1652 34.6776 1.5526
2900.00 1505.1580 1041.2115 34.6780 1.5478
2910.00 1505.3143 1041.2578 34.6784 1.5430
2920.00 1505.4706 1041.3041 34.6788 1.5382
2930.00 1505.6269 1041.3504 34.6792 1.5334
2940.00 1505.7832 1041.3967 34.6796 1.5286
2950.00 1505.9395 1041.4430 34.6800 1.5238
2960.00 1506.0959 1041.4894 34.6804 1.5190
2970.00 1506.2522 1041.5357 34.6808 1.5142
2980.00 1506.4085 1041.5820 34.6812 1.5094
2990.00 1506.5648 1041.6283 34.6817 1.5046
3000.00 1506.7235 1041.6744 34.6820 1.5001
3010.00 1506.8824 1041.7204 34.6824 1.4956
3020.00 1507.0412 1041.7665 34.6828 1.4912
3030.00 1507.2000 1041.8126 34.6831 1.4867
3040.00 1507.3588 1041.8587 34.6835 1.4822
3050.00 1507.5176 1041.9047 34.6839 1.4777
3060.00 1507.6764 1041.9508 34.6843 1.4732
3070.00 1507.8353 1041.9969 34.6846 1.4688
3080.00 1507.9941 1042.0429 34.6850 1.4643
3090.00 1508.1529 1042.0890 34.6854 1.4598
3100.00 1508.3117 1042.1351 34.6858 1.4553
3110.00 1508.4705 1042.1812 34.6861 1.4508
3120.00 1508.6293 1042.2272 34.6865 1.4464
3130.00 1508.7882 1042.2733 34.6869 1.4419
3140.00 1508.9470 1042.3194 34.6872 1.4374
3150.00 1509.1058 1042.3655 34.6876 1.4329
3160.00 1509.2646 1042.4115 34.6880 1.4284
3170.00 1509.4234 1042.4576 34.6884 1.4240
3180.00 1509.5822 1042.5037 34.6887 1.4195
3190.00 1509.7411 1042.5497 34.6891 1.4150
3200.00 1509.8999 1042.5958 34.6895 1.4105
3210.00 1510.0587 1042.6419 34.6899 1.4060
3220.00 1510.2175 1042.6880 34.6902 1.4016
3230.00 1510.3763 1042.7340 34.6906 1.3971
3240.00 1510.5351 1042.7801 34.6910 1.3926
3250.00 1510.6940 1042.8262 34.6913 1.3881
3260.00 1510.8528 1042.8723 34.6917 1.3836
3270.00 1511.0116 1042.9183 34.6921 1.3792
3280.00 1511.1712 1042.9643 34.6924 1.3747
3290.00 1511.3313 1043.0101 34.6928 1.3703
3300.00 1511.4914 1043.0560 34.6931 1.3658
3310.00 1511.6516 1043.1018 34.6934 1.3614
3320.00 1511.8117 1043.1477 34.6937 1.3569
3330.00 1511.9718 1043.1935 34.6941 1.3525
3340.00 1512.1320 1043.2394 34.6944 1.3481
3350.00 1512.2921 1043.2852 34.6947 1.3436
3360.00 1512.4522 1043.3311 34.6950 1.3392
3370.00 1512.6123 1043.3769 34.6953 1.3347
3380.00 1512.7725 1043.4228 34.6957 1.3303
3390.00 1512.9326 1043.4686 34.6960 1.3259
3400.00 1513.0927 1043.5145 34.6963 1.3214
3410.00 1513.2529 1043.5603 34.6966 1.3170
3420.00 1513.4130 1043.6062 34.6970 1.3125
3430.00 1513.5731 1043.6520 34.6973 1.3081
3440.00 1513.7333 1043.6979 34.6976 1.3036
3450.00 1513.8934 1043.7437 34.6979 1.2992
3460.00 1514.0535 1043.7896 34.6983 1.2948
3470.00 1514.2137 1043.8354 34.6986 1.2903
3480.00 1514.3738 1043.8813 34.6989 1.2859
3490.00 1514.5339 1043.9271 34.6992 1.2814
3500.00 1514.6940 1043.9730 34.6995 1.2770
3510.00 1514.8542 1044.0188 34.6999 1.2725
3520.00 1515.0143 1044.0647 34.7002 1.2681
3530.00 1515.1744 1044.1105 34.7005 1.2637
3540.00 1515.3346 1044.1564 34.7008 1.2592
3550.00 1515.4947 1044.2022 34.7012 1.2548
3560.00 1515.6548 1044.2481 34.7015 1.2503
3570.00 1515.8150 1044.2939 34.7018 1.2459
3580.00 1515.9751 1044.3398 34.7021 1.2415
3590.00 1516.1351 1044.3855 34.7024 1.2367
3600.00 1516.2950 1044.4311 34.7026 1.2320
3610.00 1516.4550 1044.4768 34.7029 1.2272
3620.00 1516.6149 1044.5225 34.7031 1.2225
3630.00 1516.7749 1044.5681 34.7034 1.2178
3640.00 1516.9348 1044.6138 34.7036 1.2130
3650.00 1517.0948 1044.6595 34.7039 1.2083
3660.00 1517.2547 1044.7051 34.7042 1.2035
3670.00 1517.4147 1044.7508 34.7044 1.1988
3680.00 1517.5746 1044.7964 34.7047 1.1940
3690.00 1517.7346 1044.8421 34.7049 1.1893
3700.00 1517.8945 1044.8878 34.7052 1.1845
3710.00 1518.0545 1044.9334 34.7054 1.1798
3720.00 1518.2144 1044.9791 34.7057 1.1750
3730.00 1518.3744 1045.0248 34.7059 1.1703
3740.00 1518.5344 1045.0704 34.7062 1.1655
3750.00 1518.6943 1045.1161 34.7064 1.1608
3760.00 1518.8543 1045.1617 34.7067 1.1560
3770.00 1519.0142 1045.2074 34.7069 1.1513
3780.00 1519.1742 1045.2531 34.7072 1.1465
3790.00 1519.3341 1045.2987 34.7074 1.1418
3800.00 1519.4941 1045.3444 34.7077 1.1370
3810.00 1519.6540 1045.3901 34.7079 1.1323
3820.00 1519.8140 1045.4357 34.7082 1.1275
3830.00 1519.9739 1045.4814 34.7084 1.1228
3840.00 1520.1339 1045.5270 34.7087 1.1180
3850.00 1520.2938 1045.5727 34.7089 1.1133
3860.00 1520.4538 1045.6184 34.7092 1.1085
3870.00 1520.6137 1045.6640 34.7094 1.1038
3880.00 1520.7737 1045.7097 34.7097 1.0990
3890.00 1520.9336 1045.7554 34.7099 1.0943
3900.00 1521.0936 1045.8010 34.7102 1.0895
3910.00 1521.2535 1045.8467 34.7105 1.0848
3920.00 1521.4131 1045.8922 34.7106 1.0797
3930.00 1521.5727 1045.9376 34.7108 1.0746
3940.00 1521.7322 1045.9831 34.7109 1.0695
3950.00 1521.8918 1046.0286 34.7111 1.0644
3960.00 1522.0513 1046.0740 34.7113 1.0593
3970.00 1522.2109 1046.1195 34.7114 1.0541
3980.00 1522.3704 1046.1649 34.7116 1.0490
3990.00 1522.5300 1046.2104 34.7117 1.0439
4000.00 1522.6895 1046.2559 34.7119 1.0388
4010.00 1522.8491 1046.3013 34.7120 1.0337
4020.00 1523.0086 1046.3468 34.7122 1.0286
4030.00 1523.1682 1046.3923 34.7124 1.0234
4040.00 1523.3277 1046.4377 34.7125 1.0183
4050.00 1523.4873 1046.4832 34.7127 1.0132
4060.00 1523.6468 1046.5286 34.7128 1.0081
4070.00 1523.8064 1046.5741 34.7130 1.0030
4080.00 1523.9659 1046.6196 34.7132 0.9979
4090.00 1524.1255 1046.6650 34.7133 0.9928
4100.00 1524.2850 1046.7105 34.7135 0.9876
4110.00 1524.4446 1046.7560 34.7136 0.9825
4120.00 1524.6041 1046.8014 34.7138 0.9774
4130.00 1524.7637 1046.8469 34.7140 0.9723
4140.00 1524.9232 1046.8923 34.7141 0.9672
4150.00 1525.0828 1046.9378 34.7143 0.9621
4160.00 1525.2423 1046.9833 34.7144 0.9570
4170.00 1525.4019 1047.0287 34.7146 0.9518
4180.00 1525.5614 1047.0742 34.7147 0.9467
4190.00 1525.7210 1047.1197 34.7149 0.9416
4200.00 1525.8805 1047.1651 34.7151 0.9365
4210.00 1526.0401 1047.2106 34.7152 0.9314
4220.00 1526.1996 1047.2560 34.7154 0.9263
4230.00 1526.3592 1047.3015 34.7155 0.9211
4240.00 1526.5187 1047.3470 34.7157 0.9160
4250.00 1526.6783 1047.3924 34.7159 0.9109
4260.00 1526.8378 1047.4379 34.7160 0.9058
4270.00 1526.9987 1047.4832 34.7161 0.9008
4280.00 1527.1606 1047.5283 34.7162 0.8959
4290.00 1527.3224 1047.5734 34.7162 0.8911
4300.00 1527.4843 1047.6186 34.7163 0.8862
4310.00 1527.6462 1047.6637 34.7163 0.8813
4320.00 1527.8081 1047.7088 34.7164 0.8764
4330.00 1527.9699 1047.7540 34.7164 0.8715
4340.00 1528.1318 1047.7991 34.7165 0.8666
4350.00 1528.2937 1047.8442 34.7165 0.8617
4360.00 1528.4555 1047.8894 34.7166 0.8569
4370.00 1528.6174 1047.9345 34.7166 0.8520
4380.00 1528.7793 1047.9797 34.7167 0.8471
4390.00 1528.9412 1048.0248 34.7167 0.8422
4400.00 1529.1030 1048.0699 34.7168 0.8373
4410.00 1529.2649 1048.1151 34.7168 0.8324
4420.00 1529.4268 1048.1602 34.7169 0.8275
4430.00 1529.5886 1048.2053 34.7169 0.8227
4440.00 1529.7505 1048.2505 34.7170 0.8178
4450.00 1529.9124 1048.2956 34.7170 0.8129
4460.00 1530.0743 1048.3407 34.7171 0.8080
4470.00 1530.2361 1048.3859 34.7171 0.8031
4480.00 1530.3980 1048.4310 34.7172 0.7982
4490.00 1530.5599 1048.4761 34.7172 0.7934
4500.00 1530.7217 1048.5213 34.7173 0.7885
4510.00 1530.8836 1048.5664 34.7173 0.7836
4520.00 1531.0455 1048.6115 34.7174 0.7787
4530.00 1531.2074 1048.6567 34.7174 0.7738
4540.00 1531.3692 1048.7018 34.7175 0.7689
4550.00 1531.5311 1048.7469 34.7175 0.7640
4560.00 1531.6930 1048.7921 34.7176 0.7592
4570.00 1531.8549 1048.8372 34.7176 0.7543
4580.00 1532.0167 1048.8824 34.7177 0.7494
4590.00 1532.1786 1048.9275 34.7177 0.7445
4600.00 1532.3405 1048.9726 34.7178 0.7396
4610.00 1532.5023 1049.0178 34.7178 0.7347
4620.00 1532.6642 1049.0629 34.7179 0.7299
4630.00 1532.8261 1049.1080 34.7179 0.7250
4640.00 1532.9880 1049.1532 34.7180 0.7201
4650.00 1533.1591 1049.1977 34.7180 0.7170
4660.00 1533.3305 1049.2422 34.7179 0.7139
4670.00 1533.5019 1049.2867 34.7179 0.7108
4680.00 1533.6732 1049.3312 34.7179 0.7077
4690.00 1533.8446 1049.3757 34.7179 0.7047
4700.00 1534.0160 1049.4202 34.7178 0.7016
4710.00 1534.1874 1049.4647 34.7178 0.6985
4720.00 1534.3588 1049.5092 34.7178 0.6955
4730.00 1534.5302 1049.5537 34.7178 0.6924
4740.00 1534.7015 1049.5982 34.7177 0.6893
4750.00 1534.8729 1049.6427 34.7177 0.6862
4760.00 1535.0443 1049.6872 34.7177 0.6832
4770.00 1535.2157 1049.7318 34.7176 0.6801
4780.00 1535.3871 1049.7763 34.7176 0.6770
4790.00 1535.5584 1049.8208 34.7176 0.6739
4800.00 1535.7298 1049.8653 34.7176 0.6709
4810.00 1535.9012 1049.9098 34.7175 0.6678
4820.00 1536.0726 1049.9543 34.7175 0.6647
4830.00 1536.2440 1049.9988 34.7175 0.6616
4840.00 1536.4154 1050.0433 34.7175 0.6586
4850.00 1536.5867 1050.0878 34.7174 0.6555
4860.00 1536.7581 1050.1323 34.7174 0.6524
4870.00 1536.9295 1050.1768 34.7174 0.6493
4880.00 1537.1009 1050.2213 34.7173 0.6463
4890.00 1537.2723 1050.2658 34.7173 0.6432
4900.00 1537.4436 1050.3103 34.7173 0.6401
4910.00 1537.6150 1050.3548 34.7173 0.6371
4920.00 1537.7864 1050.3993 34.7172 0.6340
4930.00 1537.9578 1050.4438 34.7172 0.6309
4940.00 1538.1292 1050.4884 34.7172 0.6278
4950.00 1538.3006 1050.5329 34.7171 0.6248
4960.00 1538.4719 1050.5774 34.7171 0.6217
4970.00 1538.6433 1050.6219 34.7171 0.6186
4980.00 1538.8147 1050.6664 34.7171 0.6155
4990.00 1538.9861 1050.7109 34.7170 0.6125
5000.00 1539.1575 1050.7554 34.7170 0.6094
5010.00 1539.3288 1050.7999 34.7170 0.6063
5020.00 1539.5002 1050.8444 34.7170 0.6032
5030.00 1539.6716 1050.8889 34.7169 0.6002
5040.00 1539.8441 1050.9333 34.7169 0.5973
5050.00 1540.0307 1050.9770 34.7169 0.5973
5060.00 1540.2173 1051.0206 34.7169 0.5973
5070.00 1540.4039 1051.0643 34.7169 0.5973
5080.00 1540.5905 1051.1079 34.7169 0.5973
5090.00 1540.7771 1051.1516 34.7169 0.5973
5100.00 1540.9637 1051.1952 34.7169 0.5973
5110.00 1541.1503 1051.2389 34.7169 0.5973
5120.00 1541.3369 1051.2825 34.7169 0.5973
5130.00 1541.5234 1051.3262 34.7169 0.5973
5140.00 1541.7100 1051.3698 34.7169 0.5973
5150.00 1541.8966 1051.4134 34.7169 0.5973
5160.00 1542.0832 1051.4571 34.7169 0.5973
5170.00 1542.2698 1051.5007 34.7169 0.5973
5180.00 1542.4564 1051.5444 34.7169 0.5973
5190.00 1542.6430 1051.5880 34.7169 0.5972
5200.00 1542.8296 1051.6317 34.7169 0.5972
5210.00 1543.0162 1051.6753 34.7169 0.5972
5220.00 1543.2028 1051.7190 34.7169 0.5972
5230.00 1543.3894 1051.7626 34.7169 0.5972
5240.00 1543.5759 1051.8063 34.7169 0.5972
5250.00 1543.7625 1051.8499 34.7169 0.5972
5260.00 1543.9491 1051.8936 34.7169 0.5972
5270.00 1544.1357 1051.9372 34.7169 0.5972
5280.00 1544.3223 1051.9808 34.7169 0.5972
5290.00 1544.5089 1052.0245 34.7169 0.5972
5300.00 1544.6955 1052.0681 34.7169 0.5972
5310.00 1544.8821 1052.1118 34.7169 0.5972
5320.00 1545.0687 1052.1554 34.7169 0.5972
5330.00 1545.2553 1052.1991 34.7169 0.5972
5340.00 1545.4418 1052.2427 34.7169 0.5972
5350.00 1545.6284 1052.2864 34.7169 0.5972
5360.00 1545.8150 1052.3300 34.7169 0.5972
5370.00 1546.0016 1052.3737 34.7169 0.5972
5380.00 1546.1882 1052.4173 34.7169 0.5971
5390.00 1546.3748 1052.4610 34.7169 0.5971
5400.00 1546.5614 1052.5046 34.7169 0.5971
