# Averages over distance (i) for each depth (k):
# Depth(m) Speed(m/s) Density(kg/m^3) Salt PSU Theta(degC)
0.00 1541.0899 1022.4639 35.0540 27.9153
10.00 1541.2302 1022.5127 35.0552 27.9008
20.00 1541.3265 1022.5709 35.0595 27.8646
30.00 1541.2947 1022.6565 35.0730 27.7654
40.00 1541.1047 1022.7724 35.0942 27.5908
50.00 1540.8115 1022.9028 35.1155 27.3707
60.00 1540.4798 1023.0355 35.1340 27.1361
70.00 1540.1217 1023.1697 35.1511 26.8923
80.00 1539.7064 1023.3115 35.1688 26.6248
90.00 1539.1848 1023.4677 35.1875 26.3126
100.00 1538.4885 1023.6456 35.2062 25.9282
110.00 1537.5389 1023.8499 35.2199 25.4432
120.00 1536.3072 1024.0759 35.2220 24.8530
130.00 1534.8403 1024.3127 35.2101 24.1832
140.00 1533.2170 1024.5511 35.1862 23.4672
150.00 1531.5157 1024.7762 35.1498 22.7462
160.00 1529.8374 1024.9878 35.1092 22.0490
170.00 1528.1778 1025.1886 35.0652 21.3710
180.00 1526.5919 1025.3695 35.0188 20.7402
190.00 1525.0293 1025.5442 34.9718 20.1241
200.00 1523.5243 1025.7066 34.9252 19.5416
210.00 1522.0713 1025.8581 34.8790 18.9891
220.00 1520.6182 1026.0096 34.8328 18.4366
230.00 1519.2270 1026.1479 34.7888 17.9222
240.00 1517.8588 1026.2814 34.7457 17.4219
250.00 1516.4906 1026.4149 34.7026 16.9217
260.00 1515.1339 1026.5451 34.6607 16.4310
270.00 1513.8113 1026.6656 34.6223 15.9685
280.00 1512.4888 1026.7861 34.5839 15.5060
290.00 1511.1662 1026.9067 34.5455 15.0434
300.00 1509.8441 1027.0271 34.5071 14.5812
310.00 1508.5853 1027.1367 34.4764 14.1599
320.00 1507.3264 1027.2462 34.4457 13.7387
330.00 1506.0675 1027.3558 34.4150 13.3174
340.00 1504.8087 1027.4653 34.3843 12.8962
350.00 1503.5498 1027.5749 34.3536 12.4749
360.00 1502.4223 1027.6744 34.3331 12.1091
370.00 1501.3044 1027.7731 34.3134 11.7474
380.00 1500.1865 1027.8719 34.2937 11.3856
390.00 1499.0686 1027.9706 34.2740 11.0239
400.00 1497.9507 1028.0694 34.2543 10.6621
410.00 1496.8345 1028.1680 34.2347 10.3009
420.00 1495.9571 1028.2561 34.2272 10.0188
430.00 1495.0797 1028.3442 34.2198 9.7367
440.00 1494.2024 1028.4322 34.2123 9.4546
450.00 1493.3250 1028.5203 34.2049 9.1725
460.00 1492.4476 1028.6083 34.1974 8.8904
470.00 1491.5702 1028.6964 34.1900 8.6082
480.00 1490.7700 1028.7820 34.1851 8.3483
490.00 1490.1973 1028.8602 34.1879 8.1541
500.00 1489.6247 1028.9384 34.1906 7.9599
510.00 1489.0521 1029.0166 34.1934 7.7656
520.00 1488.4794 1029.0948 34.1961 7.5714
530.00 1487.9068 1029.1730 34.1989 7.3771
540.00 1487.3341 1029.2512 34.2016 7.1829
550.00 1486.7615 1029.3294 34.2044 6.9886
560.00 1486.3929 1029.4016 34.2114 6.8489
570.00 1486.1001 1029.4716 34.2199 6.7294
580.00 1485.8074 1029.5416 34.2285 6.6099
590.00 1485.5146 1029.6116 34.2371 6.4904
600.00 1485.2219 1029.6816 34.2456 6.3709
610.00 1484.9291 1029.7516 34.2542 6.2514
620.00 1484.6363 1029.8216 34.2627 6.1320
630.00 1484.3436 1029.8916 34.2713 6.0125
640.00 1484.1440 1029.9584 34.2804 5.9171
650.00 1484.0281 1030.0222 34.2900 5.8435
660.00 1483.9123 1030.0860 34.2995 5.7699
670.00 1483.7964 1030.1497 34.3091 5.6963
680.00 1483.6806 1030.2135 34.3187 5.6227
690.00 1483.5647 1030.2773 34.3283 5.5491
700.00 1483.4489 1030.3411 34.3378 5.4755
710.00 1483.3330 1030.4049 34.3474 5.4019
720.00 1483.2172 1030.4687 34.3570 5.3283
730.00 1483.1600 1030.5290 34.3650 5.2703
740.00 1483.1213 1030.5882 34.3724 5.2172
750.00 1483.0826 1030.6473 34.3799 5.1642
760.00 1483.0440 1030.7065 34.3874 5.1111
770.00 1483.0053 1030.7656 34.3949 5.0580
780.00 1482.9666 1030.8248 34.4024 5.0049
790.00 1482.9279 1030.8840 34.4099 4.9518
800.00 1482.8892 1030.9431 34.4174 4.8987
810.00 1482.8506 1031.0023 34.4248 4.8456
820.00 1482.8299 1031.0596 34.4309 4.7977
830.00 1482.8240 1031.1153 34.4358 4.7539
840.00 1482.8180 1031.1711 34.4406 4.7101
850.00 1482.8120 1031.2269 34.4455 4.6663
860.00 1482.8060 1031.2826 34.4504 4.6225
870.00 1482.8000 1031.3384 34.4552 4.5787
880.00 1482.7940 1031.3942 34.4601 4.5348
890.00 1482.7880 1031.4500 34.4650 4.4910
900.00 1482.7820 1031.5057 34.4699 4.4472
910.00 1482.7766 1031.5614 34.4747 4.4036
920.00 1482.7918 1031.6150 34.4778 4.3658
930.00 1482.8070 1031.6685 34.4809 4.3280
940.00 1482.8222 1031.7220 34.4840 4.2902
950.00 1482.8374 1031.7755 34.4871 4.2524
960.00 1482.8526 1031.8291 34.4903 4.2145
970.00 1482.8678 1031.8826 34.4934 4.1767
980.00 1482.8830 1031.9361 34.4965 4.1389
990.00 1482.8982 1031.9897 34.4996 4.1011
1000.00 1482.9134 1032.0432 34.5027 4.0633
1010.00 1482.9333 1032.0963 34.5056 4.0268
1020.00 1482.9651 1032.1485 34.5077 3.9935
1030.00 1482.9968 1032.2007 34.5099 3.9601
1040.00 1483.0286 1032.2528 34.5121 3.9268
1050.00 1483.0603 1032.3050 34.5143 3.8935
1060.00 1483.0921 1032.3571 34.5165 3.8601
1070.00 1483.1238 1032.4093 34.5187 3.8268
1080.00 1483.1556 1032.4615 34.5208 3.7935
1090.00 1483.1873 1032.5136 34.5230 3.7602
1100.00 1483.2191 1032.5658 34.5252 3.7268
1110.00 1483.2561 1032.6176 34.5272 3.6949
1120.00 1483.3008 1032.6689 34.5289 3.6650
1130.00 1483.3456 1032.7202 34.5305 3.6350
1140.00 1483.3903 1032.7715 34.5322 3.6051
1150.00 1483.4350 1032.8228 34.5339 3.5752
1160.00 1483.4797 1032.8741 34.5356 3.5452
1170.00 1483.5245 1032.9254 34.5373 3.5153
