# Averages over distance (i) for each depth (k):
# Depth(m) Speed(m/s) Density(kg/m^3) Salt PSU Theta(degC)
0.00 1540.7578 1022.5814 35.1278 27.7254
10.00 1540.8939 1022.6309 35.1292 27.7090
20.00 1540.9643 1022.6929 35.1337 27.6611
30.00 1540.8622 1022.7882 35.1468 27.5310
40.00 1540.5873 1022.9132 35.1653 27.3209
50.00 1540.2229 1023.0491 35.1824 27.0729
60.00 1539.8277 1023.1862 35.1972 26.8142
70.00 1539.4053 1023.3250 35.2109 26.5461
80.00 1538.9116 1023.4724 35.2245 26.2492
90.00 1538.2815 1023.6356 35.2370 25.8969
100.00 1537.4458 1023.8199 35.2454 25.4631
110.00 1536.3502 1024.0262 35.2446 24.9306
120.00 1534.9943 1024.2481 35.2307 24.3059
130.00 1533.4409 1024.4759 35.2039 23.6188
140.00 1531.7761 1024.7017 35.1678 22.9037
150.00 1530.1020 1024.9114 35.1247 22.2078
160.00 1528.4815 1025.1077 35.0802 21.5447
170.00 1526.9045 1025.2932 35.0347 20.9081
180.00 1525.4264 1025.4604 34.9898 20.3236
190.00 1523.9796 1025.6219 34.9450 19.7557
200.00 1522.6012 1025.7725 34.9018 19.2223
210.00 1521.2843 1025.9131 34.8599 18.7199
220.00 1519.9674 1026.0538 34.8181 18.2175
230.00 1518.7228 1026.1827 34.7789 17.7532
240.00 1517.5051 1026.3072 34.7407 17.3030
250.00 1516.2873 1026.4318 34.7025 16.8529
260.00 1515.0822 1026.5534 34.6653 16.4116
270.00 1513.9144 1026.6665 34.6309 15.9961
280.00 1512.7465 1026.7797 34.5965 15.5807
290.00 1511.5787 1026.8928 34.5621 15.1653
300.00 1510.4111 1027.0059 34.5278 14.7501
310.00 1509.2736 1027.1103 34.4985 14.3625
320.00 1508.1362 1027.2148 34.4692 13.9749
330.00 1506.9988 1027.3193 34.4399 13.5872
340.00 1505.8614 1027.4238 34.4106 13.1996
350.00 1504.7240 1027.5283 34.3813 12.8120
360.00 1503.6542 1027.6252 34.3594 12.4600
370.00 1502.5894 1027.7215 34.3381 12.1107
380.00 1501.5245 1027.8179 34.3167 11.7613
390.00 1500.4597 1027.9142 34.2954 11.4119
400.00 1499.3948 1028.0106 34.2741 11.0626
410.00 1498.3311 1028.1069 34.2528 10.7136
420.00 1497.4232 1028.1950 34.2419 10.4216
430.00 1496.5154 1028.2831 34.2310 10.1296
440.00 1495.6076 1028.3712 34.2200 9.8376
450.00 1494.6998 1028.4592 34.2091 9.5457
460.00 1493.7919 1028.5473 34.1982 9.2537
470.00 1492.8841 1028.6354 34.1873 8.9617
480.00 1492.0383 1028.7214 34.1790 8.6884
490.00 1491.3759 1028.8013 34.1785 8.4705
500.00 1490.7134 1028.8811 34.1779 8.2525
510.00 1490.0509 1028.9609 34.1774 8.0346
520.00 1489.3885 1029.0408 34.1769 7.8166
530.00 1488.7260 1029.1206 34.1764 7.5987
540.00 1488.0635 1029.2005 34.1759 7.3807
550.00 1487.4011 1029.2803 34.1753 7.1628
560.00 1486.9427 1029.3544 34.1802 7.0003
570.00 1486.5603 1029.4264 34.1870 6.8585
580.00 1486.1779 1029.4984 34.1938 6.7166
590.00 1485.7954 1029.5704 34.2007 6.5748
600.00 1485.4130 1029.6424 34.2075 6.4329
610.00 1485.0305 1029.7144 34.2144 6.2911
620.00 1484.6481 1029.7864 34.2212 6.1492
630.00 1484.2657 1029.8584 34.2280 6.0074
640.00 1484.0008 1029.9268 34.2363 5.8959
650.00 1483.8416 1029.9920 34.2459 5.8117
660.00 1483.6825 1030.0573 34.2555 5.7275
670.00 1483.5233 1030.1225 34.2651 5.6433
680.00 1483.3641 1030.1878 34.2747 5.5591
690.00 1483.2049 1030.2530 34.2843 5.4749
700.00 1483.0458 1030.3182 34.2939 5.3907
710.00 1482.8866 1030.3835 34.3035 5.3065
720.00 1482.7274 1030.4487 34.3130 5.2223
730.00 1482.6578 1030.5101 34.3219 5.1611
740.00 1482.6164 1030.5702 34.3304 5.1071
750.00 1482.5749 1030.6303 34.3390 5.0532
760.00 1482.5335 1030.6904 34.3475 4.9992
770.00 1482.4921 1030.7505 34.3561 4.9453
780.00 1482.4507 1030.8106 34.3646 4.8913
790.00 1482.4093 1030.8707 34.3732 4.8374
800.00 1482.3679 1030.9308 34.3818 4.7834
810.00 1482.3265 1030.9909 34.3903 4.7295
820.00 1482.3110 1031.0489 34.3975 4.6825
830.00 1482.3166 1031.1053 34.4037 4.6412
840.00 1482.3223 1031.1618 34.4098 4.5999
850.00 1482.3279 1031.2182 34.4159 4.5586
860.00 1482.3335 1031.2746 34.4220 4.5173
870.00 1482.3391 1031.3310 34.4281 4.4760
880.00 1482.3447 1031.3874 34.4343 4.4347
890.00 1482.3503 1031.4438 34.4404 4.3934
900.00 1482.3559 1031.5002 34.4465 4.3521
910.00 1482.3621 1031.5566 34.4526 4.3110
920.00 1482.3901 1031.6105 34.4566 4.2760
930.00 1482.4181 1031.6643 34.4606 4.2411
940.00 1482.4462 1031.7182 34.4646 4.2061
950.00 1482.4742 1031.7721 34.4687 4.1711
960.00 1482.5022 1031.8259 34.4727 4.1362
970.00 1482.5303 1031.8798 34.4767 4.1012
980.00 1482.5583 1031.9337 34.4807 4.0662
990.00 1482.5863 1031.9876 34.4847 4.0313
1000.00 1482.6144 1032.0414 34.4888 3.9963
1010.00 1482.6466 1032.0948 34.4924 3.9625
1020.00 1482.6892 1032.1471 34.4951 3.9316
1030.00 1482.7318 1032.1994 34.4978 3.9007
1040.00 1482.7744 1032.2516 34.5005 3.8699
1050.00 1482.8170 1032.3039 34.5032 3.8390
1060.00 1482.8597 1032.3561 34.5060 3.8081
1070.00 1482.9023 1032.4084 34.5087 3.7772
1080.00 1482.9449 1032.4607 34.5114 3.7463
1090.00 1482.9875 1032.5129 34.5141 3.7155
1100.00 1483.0302 1032.5652 34.5168 3.6846
1110.00 1483.0767 1032.6171 34.5192 3.6548
1120.00 1483.1290 1032.6683 34.5211 3.6266
1130.00 1483.1813 1032.7196 34.5231 3.5983
1140.00 1483.2335 1032.7709 34.5250 3.5701
1150.00 1483.2858 1032.8222 34.5270 3.5419
1160.00 1483.3381 1032.8735 34.5289 3.5137
1170.00 1483.3903 1032.9248 34.5309 3.4854
1180.00 1483.4426 1032.9761 34.5328 3.4572
1190.00 1483.4948 1033.0274 34.5348 3.4290
1200.00 1483.5471 1033.0787 34.5367 3.4008
1210.00 1483.6022 1033.1297 34.5385 3.3733
1220.00 1483.6609 1033.1804 34.5400 3.3468
1230.00 1483.7195 1033.2311 34.5415 3.3203
1240.00 1483.7781 1033.2818 34.5431 3.2939
1250.00 1483.8368 1033.3325 34.5446 3.2674
1260.00 1483.8954 1033.3832 34.5461 3.2409
1270.00 1483.9541 1033.4339 34.5476 3.2144
1280.00 1484.0127 1033.4846 34.5491 3.1879
1290.00 1484.0714 1033.5353 34.5507 3.1614
1300.00 1484.1300 1033.5860 34.5522 3.1350
1310.00 1484.1913 1033.6365 34.5536 3.1091
1320.00 1484.2569 1033.6868 34.5549 3.0844
1330.00 1484.3225 1033.7370 34.5562 3.0597
1340.00 1484.3881 1033.7873 34.5575 3.0350
1350.00 1484.4537 1033.8375 34.5587 3.0103
1360.00 1484.5192 1033.8878 34.5600 2.9856
1370.00 1484.5848 1033.9381 34.5613 2.9609
1380.00 1484.6504 1033.9883 34.5626 2.9362
1390.00 1484.7160 1034.0386 34.5639 2.9114
1400.00 1484.7816 1034.0888 34.5652 2.8867
1410.00 1484.8481 1034.1391 34.5664 2.8622
1420.00 1484.9244 1034.1888 34.5676 2.8401
1430.00 1485.0006 1034.2386 34.5687 2.8179
1440.00 1485.0769 1034.2884 34.5698 2.7958
1450.00 1485.1531 1034.3382 34.5710 2.7736
1460.00 1485.2294 1034.3880 34.5721 2.7515
1470.00 1485.3056 1034.4378 34.5732 2.7293
1480.00 1485.3819 1034.4875 34.5744 2.7072
1490.00 1485.4581 1034.5373 34.5755 2.6850
1500.00 1485.5344 1034.5871 34.5766 2.6629
1510.00 1485.6107 1034.6369 34.5778 2.6407
1520.00 1485.6911 1034.6865 34.5789 2.6196
1530.00 1485.7819 1034.7358 34.5799 2.6008
1540.00 1485.8727 1034.7850 34.5809 2.5820
1550.00 1485.9634 1034.8342 34.5820 2.5633
1560.00 1486.0542 1034.8835 34.5830 2.5445
1570.00 1486.1450 1034.9327 34.5840 2.5257
1580.00 1486.2357 1034.9820 34.5850 2.5069
1590.00 1486.3265 1035.0312 34.5861 2.4882
1600.00 1486.4173 1035.0804 34.5871 2.4694
1610.00 1486.5081 1035.1297 34.5881 2.4506
1620.00 1486.5988 1035.1789 34.5892 2.4319
1630.00 1486.6896 1035.2282 34.5902 2.4131
1640.00 1486.7896 1035.2771 34.5912 2.3964
1650.00 1486.8962 1035.3257 34.5921 2.3812
1660.00 1487.0028 1035.3744 34.5930 2.3661
1670.00 1487.1093 1035.4231 34.5939 2.3509
1680.00 1487.2159 1035.4718 34.5949 2.3357
1690.00 1487.3225 1035.5204 34.5958 2.3206
1700.00 1487.4291 1035.5691 34.5967 2.3054
1710.00 1487.5357 1035.6178 34.5977 2.2902
1720.00 1487.6423 1035.6665 34.5986 2.2751
1730.00 1487.7489 1035.7151 34.5995 2.2599
1740.00 1487.8555 1035.7638 34.6005 2.2447
1750.00 1487.9620 1035.8125 34.6014 2.2296
1760.00 1488.0686 1035.8612 34.6023 2.2144
1770.00 1488.1822 1035.9096 34.6032 2.2008
1780.00 1488.3031 1035.9577 34.6040 2.1888
1790.00 1488.4240 1036.0058 34.6048 2.1769
1800.00 1488.5450 1036.0539 34.6056 2.1649
1810.00 1488.6659 1036.1021 34.6065 2.1530
1820.00 1488.7868 1036.1502 34.6073 2.1410
1830.00 1488.9077 1036.1983 34.6081 2.1291
1840.00 1489.0287 1036.2464 34.6089 2.1171
1850.00 1489.1496 1036.2946 34.6097 2.1051
1860.00 1489.2705 1036.3427 34.6106 2.0932
1870.00 1489.3914 1036.3908 34.6114 2.0812
1880.00 1489.5124 1036.4389 34.6122 2.0693
1890.00 1489.6333 1036.4871 34.6130 2.0573
1900.00 1489.7542 1036.5352 34.6138 2.0454
1910.00 1489.8751 1036.5833 34.6147 2.0334
1920.00 1490.0028 1036.6312 34.6154 2.0229
1930.00 1490.1353 1036.6788 34.6161 2.0135
1940.00 1490.2677 1036.7264 34.6168 2.0041
1950.00 1490.4002 1036.7741 34.6175 1.9946
1960.00 1490.5327 1036.8217 34.6182 1.9852
1970.00 1490.6651 1036.8694 34.6189 1.9758
1980.00 1490.7976 1036.9170 34.6196 1.9664
1990.00 1490.9301 1036.9646 34.6203 1.9569
2000.00 1491.0625 1037.0123 34.6210 1.9475
2010.00 1491.1950 1037.0599 34.6217 1.9381
2020.00 1491.3274 1037.1076 34.6224 1.9286
2030.00 1491.4599 1037.1552 34.6231 1.9192
2040.00 1491.5924 1037.2029 34.6238 1.9098
2050.00 1491.7248 1037.2505 34.6245 1.9003
2060.00 1491.8573 1037.2981 34.6252 1.8909
2070.00 1491.9897 1037.3458 34.6259 1.8815
2080.00 1492.1222 1037.3934 34.6266 1.8721
2090.00 1492.2600 1037.4408 34.6272 1.8638
2100.00 1492.4014 1037.4880 34.6278 1.8562
2110.00 1492.5429 1037.5352 34.6284 1.8487
2120.00 1492.6843 1037.5824 34.6290 1.8412
2130.00 1492.8257 1037.6296 34.6296 1.8336
2140.00 1492.9671 1037.6769 34.6301 1.8261
2150.00 1493.1085 1037.7241 34.6307 1.8186
2160.00 1493.2500 1037.7713 34.6313 1.8111
2170.00 1493.3914 1037.8185 34.6319 1.8035
2180.00 1493.5328 1037.8657 34.6325 1.7960
2190.00 1493.6742 1037.9129 34.6330 1.7885
2200.00 1493.8157 1037.9601 34.6336 1.7809
2210.00 1493.9571 1038.0073 34.6342 1.7734
2220.00 1494.0985 1038.0545 34.6348 1.7659
2230.00 1494.2399 1038.1018 34.6354 1.7584
2240.00 1494.3813 1038.1490 34.6359 1.7508
2250.00 1494.5228 1038.1962 34.6365 1.7433
2260.00 1494.6642 1038.2434 34.6371 1.7358
2270.00 1494.8056 1038.2906 34.6377 1.7282
2280.00 1494.9498 1038.3377 34.6382 1.7213
2290.00 1495.0984 1038.3845 34.6387 1.7152
2300.00 1495.2470 1038.4313 34.6392 1.7092
2310.00 1495.3957 1038.4781 34.6396 1.7031
2320.00 1495.5443 1038.5250 34.6401 1.6970
2330.00 1495.6929 1038.5718 34.6406 1.6910
2340.00 1495.8416 1038.6186 34.6411 1.6849
2350.00 1495.9902 1038.6654 34.6415 1.6789
2360.00 1496.1389 1038.7122 34.6420 1.6728
2370.00 1496.2875 1038.7591 34.6425 1.6667
2380.00 1496.4361 1038.8059 34.6430 1.6607
2390.00 1496.5848 1038.8527 34.6434 1.6546
2400.00 1496.7334 1038.8995 34.6439 1.6486
2410.00 1496.8821 1038.9464 34.6444 1.6425
2420.00 1497.0307 1038.9932 34.6448 1.6365
2430.00 1497.1793 1039.0400 34.6453 1.6304
2440.00 1497.3280 1039.0868 34.6458 1.6243
2450.00 1497.4766 1039.1336 34.6463 1.6183
2460.00 1497.6253 1039.1805 34.6467 1.6122
2470.00 1497.7739 1039.2273 34.6472 1.6062
2480.00 1497.9225 1039.2741 34.6477 1.6001
2490.00 1498.0712 1039.3209 34.6482 1.5940
2500.00 1498.2252 1039.3674 34.6486 1.5890
2510.00 1498.3801 1039.4139 34.6490 1.5842
2520.00 1498.5349 1039.4603 34.6493 1.5793
2530.00 1498.6897 1039.5068 34.6497 1.5745
2540.00 1498.8446 1039.5533 34.6501 1.5696
2550.00 1498.9994 1039.5997 34.6505 1.5647
2560.00 1499.1542 1039.6462 34.6509 1.5599
2570.00 1499.3091 1039.6926 34.6513 1.5550
2580.00 1499.4639 1039.7391 34.6517 1.5502
2590.00 1499.6187 1039.7856 34.6520 1.5453
2600.00 1499.7736 1039.8320 34.6524 1.5404
2610.00 1499.9284 1039.8785 34.6528 1.5356
2620.00 1500.0832 1039.9249 34.6532 1.5307
2630.00 1500.2381 1039.9714 34.6536 1.5259
2640.00 1500.3929 1040.0178 34.6540 1.5210
2650.00 1500.5477 1040.0643 34.6544 1.5162
2660.00 1500.7026 1040.1108 34.6548 1.5113
2670.00 1500.8574 1040.1572 34.6551 1.5064
2680.00 1501.0122 1040.2037 34.6555 1.5016
2690.00 1501.1671 1040.2501 34.6559 1.4967
2700.00 1501.3219 1040.2966 34.6563 1.4919
2710.00 1501.4767 1040.3431 34.6567 1.4870
2720.00 1501.6316 1040.3895 34.6571 1.4821
2730.00 1501.7868 1040.4359 34.6575 1.4774
2740.00 1501.9469 1040.4821 34.6578 1.4735
2750.00 1502.1070 1040.5282 34.6581 1.4696
2760.00 1502.2671 1040.5743 34.6584 1.4657
2770.00 1502.4272 1040.6204 34.6587 1.4618
2780.00 1502.5873 1040.6665 34.6591 1.4579
2790.00 1502.7474 1040.7126 34.6594 1.4540
2800.00 1502.9076 1040.7588 34.6597 1.4501
2810.00 1503.0677 1040.8049 34.6600 1.4462
2820.00 1503.2278 1040.8510 34.6603 1.4423
2830.00 1503.3879 1040.8971 34.6607 1.4384
2840.00 1503.5480 1040.9432 34.6610 1.4345
2850.00 1503.7081 1040.9893 34.6613 1.4306
2860.00 1503.8682 1041.0355 34.6616 1.4267
2870.00 1504.0283 1041.0816 34.6619 1.4228
2880.00 1504.1884 1041.1277 34.6623 1.4189
2890.00 1504.3485 1041.1738 34.6626 1.4150
2900.00 1504.5086 1041.2199 34.6629 1.4111
2910.00 1504.6687 1041.2660 34.6632 1.4072
2920.00 1504.8289 1041.3122 34.6636 1.4033
2930.00 1504.9890 1041.3583 34.6639 1.3994
2940.00 1505.1491 1041.4044 34.6642 1.3955
2950.00 1505.3092 1041.4505 34.6645 1.3916
2960.00 1505.4693 1041.4966 34.6648 1.3877
2970.00 1505.6294 1041.5427 34.6652 1.3838
2980.00 1505.7895 1041.5889 34.6655 1.3799
2990.00 1505.9496 1041.6350 34.6658 1.3760
3000.00 1506.1142 1041.6808 34.6661 1.3729
3010.00 1506.2789 1041.7265 34.6663 1.3698
3020.00 1506.4437 1041.7723 34.6666 1.3667
3030.00 1506.6084 1041.8181 34.6669 1.3636
3040.00 1506.7731 1041.8639 34.6671 1.3605
3050.00 1506.9378 1041.9097 34.6674 1.3574
3060.00 1507.1025 1041.9555 34.6676 1.3543
3070.00 1507.2672 1042.0012 34.6679 1.3511
3080.00 1507.4319 1042.0470 34.6682 1.3480
3090.00 1507.5967 1042.0928 34.6684 1.3449
3100.00 1507.7614 1042.1386 34.6687 1.3418
3110.00 1507.9261 1042.1844 34.6690 1.3387
3120.00 1508.0908 1042.2302 34.6692 1.3356
3130.00 1508.2555 1042.2759 34.6695 1.3325
3140.00 1508.4202 1042.3217 34.6698 1.3294
3150.00 1508.5850 1042.3675 34.6700 1.3263
3160.00 1508.7497 1042.4133 34.6703 1.3231
3170.00 1508.9144 1042.4591 34.6706 1.3200
3180.00 1509.0791 1042.5048 34.6708 1.3169
3190.00 1509.2438 1042.5506 34.6711 1.3138
3200.00 1509.4085 1042.5964 34.6714 1.3107
3210.00 1509.5733 1042.6422 34.6716 1.3076
3220.00 1509.7380 1042.6880 34.6719 1.3045
3230.00 1509.9027 1042.7338 34.6722 1.3014
3240.00 1510.0674 1042.7795 34.6724 1.2983
3250.00 1510.2321 1042.8253 34.6727 1.2952
3260.00 1510.3968 1042.8711 34.6730 1.2920
3270.00 1510.5616 1042.9169 34.6732 1.2889
3280.00 1510.7285 1042.9625 34.6735 1.2862
3290.00 1510.8971 1043.0079 34.6737 1.2837
3300.00 1511.0656 1043.0534 34.6739 1.2811
3310.00 1511.2342 1043.0989 34.6741 1.2786
3320.00 1511.4028 1043.1443 34.6743 1.2761
3330.00 1511.5714 1043.1898 34.6746 1.2736
3340.00 1511.7399 1043.2352 34.6748 1.2711
3350.00 1511.9085 1043.2807 34.6750 1.2686
3360.00 1512.0771 1043.3262 34.6752 1.2661
3370.00 1512.2457 1043.3716 34.6755 1.2635
3380.00 1512.4142 1043.4171 34.6757 1.2610
3390.00 1512.5828 1043.4625 34.6759 1.2585
3400.00 1512.7514 1043.5080 34.6761 1.2560
3410.00 1512.9200 1043.5535 34.6764 1.2535
3420.00 1513.0885 1043.5989 34.6766 1.2510
3430.00 1513.2571 1043.6444 34.6768 1.2485
3440.00 1513.4257 1043.6898 34.6770 1.2459
3450.00 1513.5943 1043.7353 34.6772 1.2434
3460.00 1513.7628 1043.7808 34.6775 1.2409
3470.00 1513.9314 1043.8262 34.6777 1.2384
3480.00 1514.1000 1043.8717 34.6779 1.2359
3490.00 1514.2686 1043.9171 34.6781 1.2334
3500.00 1514.4371 1043.9626 34.6784 1.2309
3510.00 1514.6057 1044.0081 34.6786 1.2283
3520.00 1514.7743 1044.0535 34.6788 1.2258
3530.00 1514.9429 1044.0990 34.6790 1.2233
3540.00 1515.1114 1044.1444 34.6793 1.2208
3550.00 1515.2800 1044.1899 34.6795 1.2183
3560.00 1515.4486 1044.2354 34.6797 1.2158
3570.00 1515.6172 1044.2808 34.6799 1.2133
3580.00 1515.7857 1044.3263 34.6801 1.2108
3590.00 1515.9578 1044.3714 34.6803 1.2088
3600.00 1516.1304 1044.4165 34.6805 1.2069
3610.00 1516.3030 1044.4616 34.6807 1.2050
3620.00 1516.4755 1044.5067 34.6809 1.2031
3630.00 1516.6481 1044.5518 34.6810 1.2012
3640.00 1516.8207 1044.5969 34.6812 1.1993
3650.00 1516.9933 1044.6420 34.6814 1.1974
3660.00 1517.1658 1044.6871 34.6816 1.1955
3670.00 1517.3384 1044.7322 34.6817 1.1936
3680.00 1517.5110 1044.7774 34.6819 1.1917
3690.00 1517.6836 1044.8225 34.6821 1.1898
3700.00 1517.8561 1044.8676 34.6823 1.1879
3710.00 1518.0287 1044.9127 34.6824 1.1860
3720.00 1518.2013 1044.9578 34.6826 1.1841
3730.00 1518.3739 1045.0029 34.6828 1.1822
3740.00 1518.5464 1045.0480 34.6830 1.1803
3750.00 1518.7190 1045.0931 34.6832 1.1784
3760.00 1518.8916 1045.1382 34.6833 1.1765
3770.00 1519.0642 1045.1833 34.6835 1.1746
3780.00 1519.2367 1045.2284 34.6837 1.1727
3790.00 1519.4093 1045.2735 34.6839 1.1708
3800.00 1519.5819 1045.3186 34.6840 1.1689
3810.00 1519.7545 1045.3637 34.6842 1.1670
3820.00 1519.9270 1045.4088 34.6844 1.1651
3830.00 1520.0996 1045.4539 34.6846 1.1632
3840.00 1520.2722 1045.4990 34.6847 1.1613
3850.00 1520.4448 1045.5441 34.6849 1.1594
3860.00 1520.6173 1045.5892 34.6851 1.1575
3870.00 1520.7899 1045.6343 34.6853 1.1556
3880.00 1520.9625 1045.6794 34.6855 1.1537
3890.00 1521.1351 1045.7245 34.6856 1.1518
3900.00 1521.3076 1045.7696 34.6858 1.1499
3910.00 1521.4802 1045.8147 34.6860 1.1480
3920.00 1521.6551 1045.8596 34.6861 1.1464
3930.00 1521.8304 1045.9044 34.6863 1.1448
3940.00 1522.0057 1045.9491 34.6864 1.1432
3950.00 1522.1810 1045.9939 34.6866 1.1416
3960.00 1522.3562 1046.0387 34.6867 1.1401
3970.00 1522.5315 1046.0835 34.6869 1.1385
3980.00 1522.7068 1046.1283 34.6870 1.1369
3990.00 1522.8821 1046.1731 34.6872 1.1353
4000.00 1523.0573 1046.2179 34.6874 1.1337
4010.00 1523.2326 1046.2627 34.6875 1.1321
4020.00 1523.4079 1046.3075 34.6877 1.1305
4030.00 1523.5832 1046.3523 34.6878 1.1289
4040.00 1523.7584 1046.3970 34.6880 1.1274
4050.00 1523.9337 1046.4418 34.6881 1.1258
4060.00 1524.1090 1046.4866 34.6883 1.1242
4070.00 1524.2842 1046.5314 34.6884 1.1226
4080.00 1524.4595 1046.5762 34.6886 1.1210
4090.00 1524.6348 1046.6210 34.6887 1.1194
4100.00 1524.8101 1046.6658 34.6889 1.1178
4110.00 1524.9853 1046.7106 34.6890 1.1162
4120.00 1525.1606 1046.7554 34.6892 1.1146
4130.00 1525.3359 1046.8002 34.6893 1.1131
4140.00 1525.5112 1046.8449 34.6895 1.1115
4150.00 1525.6864 1046.8897 34.6896 1.1099
4160.00 1525.8617 1046.9345 34.6898 1.1083
4170.00 1526.0370 1046.9793 34.6899 1.1067
4180.00 1526.2122 1047.0241 34.6901 1.1051
4190.00 1526.3875 1047.0689 34.6902 1.1035
4200.00 1526.5628 1047.1137 34.6904 1.1019
4210.00 1526.7381 1047.1585 34.6905 1.1004
4220.00 1526.9133 1047.2033 34.6907 1.0988
4230.00 1527.0886 1047.2481 34.6908 1.0972
4240.00 1527.2639 1047.2928 34.6910 1.0956
4250.00 1527.4392 1047.3376 34.6911 1.0940
4260.00 1527.6144 1047.3824 34.6913 1.0924
4270.00 1527.7902 1047.4271 34.6914 1.0908
4280.00 1527.9663 1047.4716 34.6916 1.0890
4290.00 1528.1424 1047.5162 34.6917 1.0873
4300.00 1528.3185 1047.5607 34.6919 1.0856
4310.00 1528.4945 1047.6053 34.6920 1.0839
4320.00 1528.6706 1047.6498 34.6922 1.0822
4330.00 1528.8467 1047.6944 34.6923 1.0805
4340.00 1529.0228 1047.7390 34.6925 1.0788
4350.00 1529.1989 1047.7835 34.6926 1.0771
4360.00 1529.3750 1047.8281 34.6928 1.0754
4370.00 1529.5511 1047.8726 34.6929 1.0736
4380.00 1529.7272 1047.9172 34.6931 1.0719
4390.00 1529.9033 1047.9617 34.6932 1.0702
4400.00 1530.0794 1048.0063 34.6934 1.0685
4410.00 1530.2555 1048.0508 34.6935 1.0668
4420.00 1530.4316 1048.0954 34.6937 1.0651
4430.00 1530.6077 1048.1399 34.6938 1.0634
4440.00 1530.7838 1048.1845 34.6940 1.0617
4450.00 1530.9599 1048.2290 34.6941 1.0600
4460.00 1531.1360 1048.2736 34.6943 1.0583
4470.00 1531.3120 1048.3181 34.6944 1.0565
4480.00 1531.4881 1048.3627 34.6946 1.0548
4490.00 1531.6642 1048.4072 34.6947 1.0531
4500.00 1531.8403 1048.4518 34.6949 1.0514
4510.00 1532.0164 1048.4964 34.6950 1.0497
4520.00 1532.1925 1048.5409 34.6952 1.0480
4530.00 1532.3686 1048.5855 34.6953 1.0463
4540.00 1532.5447 1048.6300 34.6955 1.0446
4550.00 1532.7208 1048.6746 34.6956 1.0429
4560.00 1532.8969 1048.7191 34.6958 1.0412
4570.00 1533.0730 1048.7637 34.6959 1.0394
4580.00 1533.2491 1048.8082 34.6961 1.0377
4590.00 1533.4252 1048.8528 34.6962 1.0360
4600.00 1533.6013 1048.8973 34.6964 1.0343
4610.00 1533.7774 1048.9419 34.6965 1.0326
4620.00 1533.9535 1048.9864 34.6967 1.0309
4630.00 1534.1295 1049.0310 34.6968 1.0292
4640.00 1534.3056 1049.0755 34.6970 1.0275
4650.00 1534.4810 1049.1199 34.6971 1.0253
4660.00 1534.6564 1049.1643 34.6973 1.0231
4670.00 1534.8317 1049.2087 34.6975 1.0209
4680.00 1535.0071 1049.2531 34.6976 1.0187
4690.00 1535.1824 1049.2975 34.6978 1.0165
4700.00 1535.3578 1049.3419 34.6979 1.0143
4710.00 1535.5332 1049.3863 34.6981 1.0121
4720.00 1535.7085 1049.4307 34.6983 1.0100
4730.00 1535.8839 1049.4750 34.6984 1.0078
4740.00 1536.0592 1049.5194 34.6986 1.0056
4750.00 1536.2346 1049.5638 34.6988 1.0034
4760.00 1536.4100 1049.6082 34.6989 1.0012
4770.00 1536.5853 1049.6526 34.6991 0.9990
4780.00 1536.7607 1049.6970 34.6993 0.9968
4790.00 1536.9360 1049.7414 34.6994 0.9946
4800.00 1537.1114 1049.7858 34.6996 0.9924
4810.00 1537.2867 1049.8301 34.6997 0.9902
4820.00 1537.4621 1049.8745 34.6999 0.9880
4830.00 1537.6375 1049.9189 34.7001 0.9859
4840.00 1537.8128 1049.9633 34.7002 0.9837
4850.00 1537.9882 1050.0077 34.7004 0.9815
4860.00 1538.1635 1050.0521 34.7006 0.9793
4870.00 1538.3389 1050.0965 34.7007 0.9771
4880.00 1538.5142 1050.1409 34.7009 0.9749
4890.00 1538.6896 1050.1853 34.7010 0.9727
4900.00 1538.8650 1050.2296 34.7012 0.9705
4910.00 1539.0403 1050.2740 34.7014 0.9683
4920.00 1539.2157 1050.3184 34.7015 0.9661
4930.00 1539.3910 1050.3628 34.7017 0.9639
4940.00 1539.5664 1050.4072 34.7019 0.9617
4950.00 1539.7417 1050.4516 34.7020 0.9596
4960.00 1539.9171 1050.4960 34.7022 0.9574
4970.00 1540.0925 1050.5404 34.7024 0.9552
4980.00 1540.2678 1050.5847 34.7025 0.9530
4990.00 1540.4432 1050.6291 34.7027 0.9508
5000.00 1540.6185 1050.6735 34.7028 0.9486
5010.00 1540.7939 1050.7179 34.7030 0.9464
5020.00 1540.9693 1050.7623 34.7032 0.9442
5030.00 1541.1446 1050.8067 34.7033 0.9420
5040.00 1541.3203 1050.8510 34.7035 0.9399
5050.00 1541.4994 1050.8950 34.7036 0.9382
5060.00 1541.6786 1050.9390 34.7037 0.9366
5070.00 1541.8578 1050.9829 34.7038 0.9350
5080.00 1542.0370 1051.0269 34.7040 0.9334
5090.00 1542.2162 1051.0709 34.7041 0.9317
5100.00 1542.3954 1051.1148 34.7042 0.9301
5110.00 1542.5746 1051.1588 34.7043 0.9285
5120.00 1542.7538 1051.2028 34.7044 0.9268
5130.00 1542.9330 1051.2467 34.7046 0.9252
5140.00 1543.1122 1051.2907 34.7047 0.9236
5150.00 1543.2914 1051.3347 34.7048 0.9219
5160.00 1543.4706 1051.3786 34.7049 0.9203
5170.00 1543.6497 1051.4226 34.7050 0.9187
5180.00 1543.8289 1051.4665 34.7051 0.9171
5190.00 1544.0081 1051.5105 34.7053 0.9154
5200.00 1544.1873 1051.5545 34.7054 0.9138
5210.00 1544.3665 1051.5984 34.7055 0.9122
5220.00 1544.5457 1051.6424 34.7056 0.9105
5230.00 1544.7249 1051.6864 34.7057 0.9089
5240.00 1544.9041 1051.7303 34.7058 0.9073
5250.00 1545.0833 1051.7743 34.7060 0.9056
5260.00 1545.2625 1051.8183 34.7061 0.9040
5270.00 1545.4417 1051.8622 34.7062 0.9024
5280.00 1545.6208 1051.9062 34.7063 0.9008
5290.00 1545.8000 1051.9502 34.7064 0.8991
5300.00 1545.9792 1051.9941 34.7066 0.8975
5310.00 1546.1584 1052.0381 34.7067 0.8959
5320.00 1546.3376 1052.0821 34.7068 0.8942
5330.00 1546.5168 1052.1260 34.7069 0.8926
5340.00 1546.6960 1052.1700 34.7070 0.8910
5350.00 1546.8752 1052.2139 34.7071 0.8893
5360.00 1547.0544 1052.2579 34.7073 0.8877
5370.00 1547.2336 1052.3019 34.7074 0.8861
5380.00 1547.4128 1052.3458 34.7075 0.8844
5390.00 1547.5919 1052.3898 34.7076 0.8828
5400.00 1547.7711 1052.4338 34.7077 0.8812
5410.00 1547.9503 1052.4777 34.7079 0.8796
5420.00 1548.1295 1052.5217 34.7080 0.8779
5430.00 1548.3087 1052.5657 34.7081 0.8763
5440.00 1548.4879 1052.6096 34.7082 0.8747
5450.00 1548.6671 1052.6536 34.7083 0.8730
5460.00 1548.8463 1052.6976 34.7084 0.8714
5470.00 1549.0360 1052.7412 34.7084 0.8716
5480.00 1549.2235 1052.7844 34.7084 0.8716
5490.00 1549.4111 1052.8276 34.7084 0.8716
5500.00 1549.5986 1052.8709 34.7084 0.8716
5510.00 1549.7862 1052.9141 34.7084 0.8716
5520.00 1549.9737 1052.9573 34.7084 0.8716
5530.00 1550.1613 1053.0006 34.7084 0.8716
5540.00 1550.3488 1053.0438 34.7084 0.8716
5550.00 1550.5364 1053.0870 34.7084 0.8716
5560.00 1550.7239 1053.1303 34.7084 0.8716
5570.00 1550.9115 1053.1735 34.7084 0.8716
5580.00 1551.0990 1053.2167 34.7084 0.8716
5590.00 1551.2866 1053.2599 34.7084 0.8716
5600.00 1551.4741 1053.3032 34.7084 0.8716
5610.00 1551.6617 1053.3464 34.7084 0.8716
5620.00 1551.8492 1053.3896 34.7084 0.8716
5630.00 1552.0368 1053.4329 34.7084 0.8716
5640.00 1552.2243 1053.4761 34.7084 0.8716
5650.00 1552.4119 1053.5193 34.7084 0.8716
5660.00 1552.5994 1053.5626 34.7084 0.8716
5670.00 1552.7870 1053.6058 34.7084 0.8716
5680.00 1552.9745 1053.6490 34.7084 0.8716
5690.00 1553.1621 1053.6923 34.7084 0.8716
5700.00 1553.3496 1053.7355 34.7084 0.8716
5710.00 1553.5372 1053.7787 34.7084 0.8716
5720.00 1553.7247 1053.8220 34.7084 0.8716
5730.00 1553.9123 1053.8652 34.7084 0.8716
5740.00 1554.0998 1053.9084 34.7084 0.8716
5750.00 1554.2874 1053.9517 34.7084 0.8716
5760.00 1554.4749 1053.9949 34.7084 0.8716
5770.00 1554.6625 1054.0381 34.7084 0.8716
5780.00 1554.8500 1054.0814 34.7084 0.8716
5790.00 1555.0376 1054.1246 34.7084 0.8716
5800.00 1555.2251 1054.1678 34.7084 0.8716
5810.00 1555.4127 1054.2111 34.7084 0.8716
5820.00 1555.6002 1054.2543 34.7084 0.8716
5830.00 1555.7878 1054.2975 34.7084 0.8716
5840.00 1555.9753 1054.3407 34.7084 0.8716
5850.00 1556.1629 1054.3840 34.7084 0.8716
5860.00 1556.3504 1054.4272 34.7084 0.8716
5870.00 1556.5380 1054.4704 34.7084 0.8716
5880.00 1556.7255 1054.5137 34.7084 0.8716
5890.00 1556.9131 1054.5569 34.7084 0.8716
5900.00 1557.1006 1054.6001 34.7084 0.8716
5910.00 1557.2882 1054.6434 34.7084 0.8716
5920.00 1557.4757 1054.6866 34.7084 0.8716
5930.00 1557.6633 1054.7298 34.7084 0.8716
5940.00 1557.8508 1054.7731 34.7084 0.8716
5950.00 1558.0384 1054.8163 34.7084 0.8716
5960.00 1558.2259 1054.8595 34.7084 0.8716
5970.00 1558.4135 1054.9028 34.7084 0.8716
5980.00 1558.6010 1054.9460 34.7084 0.8716
5990.00 1558.7886 1054.9892 34.7084 0.8716
6000.00 1558.9761 1055.0325 34.7084 0.8716
6010.00 1559.1637 1055.0757 34.7084 0.8716
6020.00 1559.3512 1055.1189 34.7084 0.8716
6030.00 1559.5388 1055.1622 34.7084 0.8716
6040.00 1559.7263 1055.2054 34.7084 0.8716
6050.00 1559.9139 1055.2486 34.7084 0.8716
6060.00 1560.1014 1055.2918 34.7084 0.8716
6070.00 1560.2890 1055.3351 34.7084 0.8716
6080.00 1560.4765 1055.3783 34.7084 0.8716
6090.00 1560.6641 1055.4215 34.7084 0.8716
6100.00 1560.8516 1055.4648 34.7084 0.8716
6110.00 1561.0392 1055.5080 34.7084 0.8716
6120.00 1561.2267 1055.5512 34.7084 0.8716
6130.00 1561.4143 1055.5945 34.7084 0.8716
6140.00 1561.6018 1055.6377 34.7084 0.8716
6150.00 1561.7894 1055.6809 34.7084 0.8716
6160.00 1561.9769 1055.7242 34.7084 0.8716
6170.00 1562.1645 1055.7674 34.7084 0.8716
6180.00 1562.3520 1055.8106 34.7084 0.8716
6190.00 1562.5396 1055.8539 34.7084 0.8716
6200.00 1562.7271 1055.8971 34.7084 0.8716
6210.00 1562.9146 1055.9403 34.7084 0.8716
6220.00 1563.1022 1055.9836 34.7084 0.8716
6230.00 1563.2897 1056.0268 34.7084 0.8716
6240.00 1563.4773 1056.0700 34.7084 0.8716
6250.00 1563.6648 1056.1133 34.7084 0.8716
6260.00 1563.8524 1056.1565 34.7084 0.8716
6270.00 1564.0399 1056.1997 34.7084 0.8716
6280.00 1564.2275 1056.2430 34.7084 0.8716
6290.00 1564.4150 1056.2862 34.7084 0.8716
6300.00 1564.6026 1056.3294 34.7084 0.8716
6310.00 1564.7901 1056.3726 34.7084 0.8716
6320.00 1564.9777 1056.4159 34.7084 0.8716
6330.00 1565.1652 1056.4591 34.7084 0.8716
6340.00 1565.3528 1056.5023 34.7084 0.8716
6350.00 1565.5403 1056.5456 34.7084 0.8716
6360.00 1565.7279 1056.5888 34.7084 0.8716
6370.00 1565.9154 1056.6320 34.7084 0.8716
6380.00 1566.1030 1056.6753 34.7084 0.8716
6390.00 1566.2905 1056.7185 34.7084 0.8716
6400.00 1566.4781 1056.7617 34.7084 0.8716
6410.00 1566.6656 1056.8050 34.7084 0.8716
6420.00 1566.8532 1056.8482 34.7084 0.8716
6430.00 1567.0407 1056.8914 34.7084 0.8716
6440.00 1567.2283 1056.9347 34.7084 0.8716
6450.00 1567.4158 1056.9779 34.7084 0.8716
6460.00 1567.6034 1057.0211 34.7084 0.8716
6470.00 1567.7909 1057.0644 34.7084 0.8716
6480.00 1567.9785 1057.1076 34.7084 0.8716
6490.00 1568.1660 1057.1508 34.7084 0.8716
6500.00 1568.3536 1057.1941 34.7084 0.8716
6510.00 1568.5411 1057.2373 34.7084 0.8716
6520.00 1568.7287 1057.2805 34.7084 0.8716
6530.00 1568.9162 1057.3237 34.7084 0.8716
6540.00 1569.1038 1057.3670 34.7084 0.8716
6550.00 1569.2913 1057.4102 34.7084 0.8716
6560.00 1569.4789 1057.4534 34.7084 0.8716
6570.00 1569.6664 1057.4967 34.7084 0.8716
6580.00 1569.8540 1057.5399 34.7084 0.8716
6590.00 1570.0415 1057.5831 34.7084 0.8716
6600.00 1570.2291 1057.6264 34.7084 0.8716
6610.00 1570.4166 1057.6696 34.7084 0.8716
6620.00 1570.6042 1057.7128 34.7084 0.8716
6630.00 1570.7917 1057.7561 34.7084 0.8716
6640.00 1570.9793 1057.7993 34.7084 0.8716
6650.00 1571.1668 1057.8425 34.7084 0.8716
6660.00 1571.3544 1057.8858 34.7084 0.8716
6670.00 1571.5419 1057.9290 34.7084 0.8716
6680.00 1571.7295 1057.9722 34.7084 0.8716
6690.00 1571.9170 1058.0155 34.7084 0.8716
6700.00 1572.1046 1058.0587 34.7084 0.8716
6710.00 1572.2921 1058.1019 34.7084 0.8716
6720.00 1572.4797 1058.1452 34.7084 0.8716
6730.00 1572.6672 1058.1884 34.7084 0.8716
6740.00 1572.8548 1058.2316 34.7084 0.8716
6750.00 1573.0423 1058.2749 34.7084 0.8716
6760.00 1573.2299 1058.3181 34.7084 0.8716
6770.00 1573.4174 1058.3613 34.7084 0.8716
6780.00 1573.6050 1058.4045 34.7084 0.8716
6790.00 1573.7925 1058.4478 34.7084 0.8716
6800.00 1573.9801 1058.4910 34.7084 0.8716
6810.00 1574.1676 1058.5342 34.7084 0.8716
6820.00 1574.3552 1058.5775 34.7084 0.8716
6830.00 1574.5427 1058.6207 34.7084 0.8716
6840.00 1574.7303 1058.6639 34.7084 0.8716
6850.00 1574.9178 1058.7072 34.7084 0.8716
6860.00 1575.1054 1058.7504 34.7084 0.8716
6870.00 1575.2929 1058.7936 34.7084 0.8716
6880.00 1575.4805 1058.8369 34.7084 0.8716
6890.00 1575.6680 1058.8801 34.7084 0.8716
6900.00 1575.8556 1058.9233 34.7084 0.8716
6910.00 1576.0431 1058.9666 34.7084 0.8716
6920.00 1576.2307 1059.0098 34.7084 0.8716
6930.00 1576.4182 1059.0530 34.7084 0.8716
6940.00 1576.6058 1059.0963 34.7084 0.8716
6950.00 1576.7933 1059.1395 34.7084 0.8716
6960.00 1576.9809 1059.1827 34.7084 0.8716
6970.00 1577.1684 1059.2260 34.7084 0.8716
6980.00 1577.3560 1059.2692 34.7084 0.8716
6990.00 1577.5435 1059.3124 34.7084 0.8716
7000.00 1577.7311 1059.3557 34.7084 0.8716
7010.00 1577.9186 1059.3989 34.7084 0.8716
7020.00 1578.1062 1059.4421 34.7084 0.8716
7030.00 1578.2937 1059.4853 34.7084 0.8716
7040.00 1578.4813 1059.5286 34.7084 0.8716
7050.00 1578.6688 1059.5718 34.7084 0.8716
7060.00 1578.8564 1059.6150 34.7084 0.8716
7070.00 1579.0439 1059.6583 34.7084 0.8716
7080.00 1579.2315 1059.7015 34.7084 0.8716
7090.00 1579.4190 1059.7447 34.7084 0.8716
7100.00 1579.6066 1059.7880 34.7084 0.8716
7110.00 1579.7941 1059.8312 34.7084 0.8716
7120.00 1579.9817 1059.8744 34.7084 0.8716
7130.00 1580.1692 1059.9177 34.7084 0.8716
7140.00 1580.3568 1059.9609 34.7084 0.8716
7150.00 1580.5443 1060.0041 34.7084 0.8716
7160.00 1580.7319 1060.0474 34.7084 0.8716
7170.00 1580.9194 1060.0906 34.7084 0.8716
7180.00 1581.1070 1060.1338 34.7084 0.8716
7190.00 1581.2945 1060.1771 34.7084 0.8716
7200.00 1581.4821 1060.2203 34.7084 0.8716
7210.00 1581.6696 1060.2635 34.7084 0.8716
7220.00 1581.8572 1060.3068 34.7084 0.8716
7230.00 1582.0447 1060.3500 34.7084 0.8716
7240.00 1582.2323 1060.3932 34.7084 0.8716
7250.00 1582.4198 1060.4364 34.7084 0.8716
7260.00 1582.6074 1060.4797 34.7084 0.8716
7270.00 1582.7949 1060.5229 34.7084 0.8716
7280.00 1582.9825 1060.5661 34.7084 0.8716
7290.00 1583.1700 1060.6094 34.7084 0.8716
7300.00 1583.3576 1060.6526 34.7084 0.8716
7310.00 1583.5451 1060.6958 34.7084 0.8716
7320.00 1583.7327 1060.7391 34.7084 0.8716
7330.00 1583.9202 1060.7823 34.7084 0.8716
7340.00 1584.1078 1060.8255 34.7084 0.8716
7350.00 1584.2953 1060.8688 34.7084 0.8716
7360.00 1584.4829 1060.9120 34.7084 0.8716
7370.00 1584.6704 1060.9552 34.7084 0.8716
7380.00 1584.8580 1060.9985 34.7084 0.8716
7390.00 1585.0455 1061.0417 34.7084 0.8716
7400.00 1585.2331 1061.0849 34.7084 0.8716
7410.00 1585.4206 1061.1282 34.7084 0.8716
7420.00 1585.6082 1061.1714 34.7084 0.8716
7430.00 1585.7957 1061.2146 34.7084 0.8716
7440.00 1585.9833 1061.2579 34.7084 0.8716
7450.00 1586.1708 1061.3011 34.7084 0.8716
7460.00 1586.3584 1061.3443 34.7084 0.8716
7470.00 1586.5459 1061.3876 34.7084 0.8716
7480.00 1586.7335 1061.4308 34.7084 0.8716
7490.00 1586.9210 1061.4740 34.7084 0.8716
7500.00 1587.1086 1061.5172 34.7084 0.8716
7510.00 1587.2961 1061.5605 34.7084 0.8716
7520.00 1587.4837 1061.6037 34.7084 0.8716
7530.00 1587.6712 1061.6469 34.7084 0.8716
7540.00 1587.8588 1061.6902 34.7084 0.8716
7550.00 1588.0463 1061.7334 34.7084 0.8716
7560.00 1588.2339 1061.7766 34.7084 0.8716
7570.00 1588.4214 1061.8199 34.7084 0.8716
7580.00 1588.6090 1061.8631 34.7084 0.8716
7590.00 1588.7965 1061.9063 34.7084 0.8716
7600.00 1588.9841 1061.9496 34.7084 0.8716
7610.00 1589.1716 1061.9928 34.7084 0.8716
7620.00 1589.3592 1062.0360 34.7084 0.8716
7630.00 1589.5467 1062.0793 34.7084 0.8716
7640.00 1589.7343 1062.1225 34.7084 0.8716
7650.00 1589.9218 1062.1657 34.7084 0.8716
7660.00 1590.1094 1062.2090 34.7084 0.8716
7670.00 1590.2969 1062.2522 34.7084 0.8716
7680.00 1590.4845 1062.2954 34.7084 0.8716
7690.00 1590.6720 1062.3387 34.7084 0.8716
7700.00 1590.8596 1062.3819 34.7084 0.8716
7710.00 1591.0471 1062.4251 34.7084 0.8716
7720.00 1591.2347 1062.4684 34.7084 0.8716
7730.00 1591.4222 1062.5116 34.7084 0.8716
7740.00 1591.6098 1062.5548 34.7084 0.8716
7750.00 1591.7973 1062.5980 34.7084 0.8716
7760.00 1591.9849 1062.6413 34.7084 0.8716
7770.00 1592.1724 1062.6845 34.7084 0.8716
7780.00 1592.3600 1062.7277 34.7084 0.8716
7790.00 1592.5475 1062.7710 34.7084 0.8716
7800.00 1592.7351 1062.8142 34.7084 0.8716
7810.00 1592.9226 1062.8574 34.7084 0.8716
7820.00 1593.1102 1062.9007 34.7084 0.8716
7830.00 1593.2977 1062.9439 34.7084 0.8716
7840.00 1593.4853 1062.9871 34.7084 0.8716
7850.00 1593.6728 1063.0304 34.7084 0.8716
7860.00 1593.8604 1063.0736 34.7084 0.8716
7870.00 1594.0479 1063.1168 34.7084 0.8716
7880.00 1594.2355 1063.1601 34.7084 0.8716
7890.00 1594.4230 1063.2033 34.7084 0.8716
7900.00 1594.6106 1063.2465 34.7084 0.8716
7910.00 1594.7981 1063.2898 34.7084 0.8716
7920.00 1594.9857 1063.3330 34.7084 0.8716
7930.00 1595.1732 1063.3762 34.7084 0.8716
7940.00 1595.3608 1063.4195 34.7084 0.8716
7950.00 1595.5483 1063.4627 34.7084 0.8716
7960.00 1595.7359 1063.5059 34.7084 0.8716
7970.00 1595.9234 1063.5491 34.7084 0.8716
7980.00 1596.1110 1063.5924 34.7084 0.8716
7990.00 1596.2985 1063.6356 34.7084 0.8716
