# Averages over distance (i) for each depth (k):
# Depth(m) Speed(m/s) Density(kg/m^3) Salt PSU Theta(degC)
0.00 1541.5858 1023.2591 35.9954 27.6483
10.00 1541.7293 1023.3074 35.9966 27.6354
20.00 1541.8625 1023.3590 35.9999 27.6167
30.00 1541.9411 1023.4258 36.0109 27.5693
40.00 1541.8947 1023.5245 36.0366 27.4577
50.00 1541.6933 1023.6594 36.0773 27.2690
60.00 1541.3772 1023.8190 36.1275 27.0250
70.00 1540.9772 1023.9962 36.1850 26.7420
80.00 1540.4649 1024.1916 36.2465 26.4099
90.00 1539.8050 1024.4033 36.3059 26.0181
100.00 1539.0001 1024.6207 36.3527 25.5748
110.00 1538.1042 1024.8269 36.3777 25.1095
120.00 1537.2047 1025.0086 36.3788 24.6605
130.00 1536.3617 1025.1635 36.3615 24.2494
140.00 1535.5827 1025.2978 36.3327 23.8745
150.00 1534.8503 1025.4132 36.2925 23.5293
160.00 1534.0770 1025.5236 36.2434 23.1754
170.00 1533.2706 1025.6300 36.1871 22.8143
180.00 1532.2288 1025.7408 36.1108 22.3784
190.00 1531.1128 1025.8530 36.0282 21.9188
200.00 1529.7059 1025.9765 35.9311 21.3677
210.00 1528.0376 1026.1101 35.8210 20.7343
220.00 1526.3693 1026.2438 35.7108 20.1009
230.00 1524.3700 1026.3897 35.5990 19.3814
240.00 1522.2477 1026.5400 35.4865 18.6299
250.00 1520.1253 1026.6904 35.3740 17.8784
260.00 1517.9940 1026.8393 35.2684 17.1358
270.00 1515.8359 1026.9838 35.1830 16.4192
280.00 1513.6778 1027.1282 35.0976 15.7027
290.00 1511.5198 1027.2727 35.0122 14.9861
300.00 1509.3643 1027.4170 34.9271 14.2706
310.00 1507.5673 1027.5395 34.8775 13.7032
320.00 1505.7704 1027.6619 34.8279 13.1358
330.00 1503.9735 1027.7844 34.7784 12.5683
340.00 1502.1766 1027.9069 34.7288 12.0009
350.00 1500.3796 1028.0293 34.6792 11.4335
360.00 1499.1656 1028.1272 34.6572 11.0528
370.00 1497.9941 1028.2232 34.6372 10.6857
380.00 1496.8227 1028.3192 34.6172 10.3186
390.00 1495.6512 1028.4152 34.5972 9.9515
400.00 1494.4797 1028.5112 34.5772 9.5845
410.00 1493.3125 1028.6071 34.5573 9.2186
420.00 1492.7584 1028.6812 34.5536 9.0269
430.00 1492.2043 1028.7553 34.5499 8.8352
440.00 1491.6502 1028.8294 34.5461 8.6435
450.00 1491.0961 1028.9036 34.5424 8.4518
460.00 1490.5419 1028.9777 34.5387 8.2601
470.00 1489.9878 1029.0518 34.5350 8.0684
480.00 1489.5050 1029.1230 34.5319 7.8964
490.00 1489.2328 1029.1855 34.5308 7.7822
500.00 1488.9606 1029.2480 34.5298 7.6681
510.00 1488.6884 1029.3105 34.5287 7.5540
520.00 1488.4162 1029.3731 34.5276 7.4398
530.00 1488.1440 1029.4356 34.5265 7.3257
540.00 1487.8718 1029.4981 34.5254 7.2116
550.00 1487.5996 1029.5606 34.5244 7.0974
560.00 1487.3908 1029.6199 34.5231 7.0012
570.00 1487.2056 1029.6779 34.5217 6.9116
580.00 1487.0204 1029.7359 34.5204 6.8220
590.00 1486.8351 1029.7939 34.5190 6.7324
600.00 1486.6499 1029.8520 34.5176 6.6427
610.00 1486.4647 1029.9100 34.5163 6.5531
620.00 1486.2794 1029.9680 34.5149 6.4635
630.00 1486.0942 1030.0260 34.5135 6.3739
640.00 1485.9443 1030.0828 34.5125 6.2939
650.00 1485.8262 1030.1384 34.5118 6.2224
660.00 1485.7082 1030.1940 34.5111 6.1509
670.00 1485.5901 1030.2495 34.5105 6.0793
680.00 1485.4720 1030.3051 34.5098 6.0078
690.00 1485.3539 1030.3607 34.5091 5.9363
700.00 1485.2359 1030.4163 34.5084 5.8648
710.00 1485.1178 1030.4719 34.5077 5.7933
720.00 1484.9997 1030.5275 34.5070 5.7218
730.00 1484.9218 1030.5820 34.5070 5.6608
740.00 1484.8565 1030.6361 34.5072 5.6030
750.00 1484.7912 1030.6903 34.5074 5.5453
760.00 1484.7260 1030.7444 34.5076 5.4875
770.00 1484.6607 1030.7986 34.5078 5.4298
780.00 1484.5955 1030.8527 34.5079 5.3720
790.00 1484.5302 1030.9068 34.5081 5.3143
800.00 1484.4649 1030.9610 34.5083 5.2565
810.00 1484.3997 1031.0151 34.5085 5.1987
820.00 1484.3541 1031.0688 34.5090 5.1461
830.00 1484.3244 1031.1220 34.5099 5.0974
840.00 1484.2948 1031.1753 34.5107 5.0488
850.00 1484.2651 1031.2286 34.5115 5.0002
860.00 1484.2355 1031.2818 34.5123 4.9516
870.00 1484.2058 1031.3351 34.5131 4.9030
880.00 1484.1761 1031.3884 34.5140 4.8544
890.00 1484.1465 1031.4416 34.5148 4.8058
900.00 1484.1168 1031.4949 34.5156 4.7572
910.00 1484.0878 1031.5481 34.5164 4.7087
920.00 1484.0823 1031.6007 34.5176 4.6663
930.00 1484.0769 1031.6534 34.5188 4.6239
940.00 1484.0714 1031.7060 34.5199 4.5815
950.00 1484.0660 1031.7586 34.5211 4.5391
960.00 1484.0605 1031.8112 34.5223 4.4966
970.00 1484.0551 1031.8639 34.5234 4.4542
980.00 1484.0496 1031.9165 34.5246 4.4118
990.00 1484.0442 1031.9691 34.5258 4.3694
1000.00 1484.0387 1032.0217 34.5269 4.3270
1010.00 1484.0385 1032.0742 34.5281 4.2859
1020.00 1484.0515 1032.1262 34.5295 4.2482
1030.00 1484.0645 1032.1783 34.5308 4.2105
1040.00 1484.0775 1032.2303 34.5321 4.1728
1050.00 1484.0905 1032.2824 34.5334 4.1351
1060.00 1484.1035 1032.3344 34.5347 4.0974
1070.00 1484.1165 1032.3864 34.5360 4.0597
1080.00 1484.1295 1032.4385 34.5373 4.0220
1090.00 1484.1425 1032.4905 34.5386 3.9843
1100.00 1484.1555 1032.5426 34.5399 3.9466
1110.00 1484.1749 1032.5944 34.5412 3.9105
1120.00 1484.2037 1032.6459 34.5425 3.8768
1130.00 1484.2325 1032.6974 34.5438 3.8431
1140.00 1484.2613 1032.7488 34.5451 3.8094
1150.00 1484.2901 1032.8003 34.5464 3.7757
1160.00 1484.3189 1032.8518 34.5478 3.7420
1170.00 1484.3477 1032.9033 34.5491 3.7083
1180.00 1484.3765 1032.9548 34.5504 3.6746
1190.00 1484.4053 1033.0063 34.5517 3.6408
1200.00 1484.4341 1033.0577 34.5530 3.6071
1210.00 1484.4694 1033.1090 34.5543 3.5750
1220.00 1484.5126 1033.1599 34.5555 3.5449
1230.00 1484.5558 1033.2109 34.5568 3.5148
1240.00 1484.5991 1033.2618 34.5581 3.4847
1250.00 1484.6423 1033.3128 34.5593 3.4546
1260.00 1484.6856 1033.3637 34.5606 3.4244
1270.00 1484.7288 1033.4147 34.5619 3.3943
1280.00 1484.7721 1033.4656 34.5631 3.3642
1290.00 1484.8153 1033.5166 34.5644 3.3341
1300.00 1484.8586 1033.5675 34.5657 3.3040
1310.00 1484.9070 1033.6183 34.5669 3.2751
1320.00 1484.9638 1033.6687 34.5681 3.2483
1330.00 1485.0206 1033.7192 34.5694 3.2215
1340.00 1485.0774 1033.7697 34.5706 3.1947
1350.00 1485.1342 1033.8201 34.5718 3.1678
1360.00 1485.1910 1033.8706 34.5730 3.1410
1370.00 1485.2479 1033.9211 34.5742 3.1142
1380.00 1485.3047 1033.9715 34.5755 3.0874
1390.00 1485.3615 1034.0220 34.5767 3.0606
1400.00 1485.4183 1034.0725 34.5779 3.0338
1410.00 1485.4763 1034.1229 34.5791 3.0072
1420.00 1485.5467 1034.1729 34.5803 2.9837
1430.00 1485.6172 1034.2229 34.5815 2.9601
1440.00 1485.6877 1034.2729 34.5827 2.9365
1450.00 1485.7582 1034.3229 34.5839 2.9129
1460.00 1485.8286 1034.3729 34.5851 2.8894
1470.00 1485.8991 1034.4229 34.5863 2.8658
1480.00 1485.9696 1034.4729 34.5875 2.8422
1490.00 1486.0400 1034.5229 34.5887 2.8187
1500.00 1486.1105 1034.5729 34.5899 2.7951
1510.00 1486.1810 1034.6229 34.5911 2.7715
1520.00 1486.2559 1034.6728 34.5923 2.7490
1530.00 1486.3415 1034.7222 34.5934 2.7290
1540.00 1486.4272 1034.7717 34.5946 2.7089
1550.00 1486.5129 1034.8212 34.5957 2.6889
1560.00 1486.5986 1034.8707 34.5969 2.6689
1570.00 1486.6843 1034.9202 34.5981 2.6489
1580.00 1486.7700 1034.9696 34.5992 2.6289
1590.00 1486.8557 1035.0191 34.6004 2.6088
1600.00 1486.9413 1035.0686 34.6015 2.5888
1610.00 1487.0270 1035.1181 34.6027 2.5688
1620.00 1487.1127 1035.1676 34.6039 2.5488
1630.00 1487.1984 1035.2170 34.6050 2.5287
1640.00 1487.2939 1035.2662 34.6061 2.5110
1650.00 1487.3965 1035.3151 34.6072 2.4948
1660.00 1487.4990 1035.3640 34.6083 2.4786
1670.00 1487.6015 1035.4128 34.6093 2.4625
1680.00 1487.7041 1035.4617 34.6104 2.4463
1690.00 1487.8066 1035.5106 34.6115 2.4302
1700.00 1487.9092 1035.5595 34.6125 2.4140
1710.00 1488.0117 1035.6084 34.6136 2.3978
1720.00 1488.1143 1035.6573 34.6147 2.3817
1730.00 1488.2168 1035.7062 34.6158 2.3655
1740.00 1488.3193 1035.7550 34.6168 2.3493
1750.00 1488.4219 1035.8039 34.6179 2.3332
1760.00 1488.5244 1035.8528 34.6190 2.3170
1770.00 1488.6347 1035.9014 34.6200 2.3026
1780.00 1488.7530 1035.9497 34.6209 2.2900
1790.00 1488.8714 1035.9979 34.6218 2.2774
1800.00 1488.9898 1036.0462 34.6227 2.2649
1810.00 1489.1081 1036.0944 34.6236 2.2523
1820.00 1489.2265 1036.1427 34.6246 2.2397
1830.00 1489.3449 1036.1910 34.6255 2.2271
1840.00 1489.4633 1036.2392 34.6264 2.2145
1850.00 1489.5816 1036.2875 34.6273 2.2019
1860.00 1489.7000 1036.3357 34.6282 2.1894
1870.00 1489.8184 1036.3840 34.6292 2.1768
1880.00 1489.9367 1036.4323 34.6301 2.1642
1890.00 1490.0551 1036.4805 34.6310 2.1516
1900.00 1490.1735 1036.5288 34.6319 2.1390
1910.00 1490.2918 1036.5771 34.6328 2.1264
1920.00 1490.4180 1036.6250 34.6336 2.1156
1930.00 1490.5497 1036.6726 34.6344 2.1060
1940.00 1490.6813 1036.7203 34.6351 2.0963
1950.00 1490.8130 1036.7680 34.6359 2.0867
1960.00 1490.9447 1036.8156 34.6366 2.0771
1970.00 1491.0764 1036.8633 34.6373 2.0674
1980.00 1491.2080 1036.9110 34.6381 2.0578
1990.00 1491.3397 1036.9586 34.6388 2.0482
2000.00 1491.4714 1037.0063 34.6395 2.0386
2010.00 1491.6031 1037.0540 34.6403 2.0289
2020.00 1491.7347 1037.1017 34.6410 2.0193
2030.00 1491.8664 1037.1493 34.6417 2.0097
2040.00 1491.9981 1037.1970 34.6425 2.0000
2050.00 1492.1298 1037.2447 34.6432 1.9904
2060.00 1492.2614 1037.2923 34.6439 1.9808
2070.00 1492.3931 1037.3400 34.6447 1.9712
2080.00 1492.5248 1037.3877 34.6454 1.9615
2090.00 1492.6626 1037.4350 34.6460 1.9532
2100.00 1492.8045 1037.4822 34.6466 1.9458
2110.00 1492.9464 1037.5293 34.6472 1.9384
2120.00 1493.0883 1037.5765 34.6477 1.9310
2130.00 1493.2303 1037.6236 34.6483 1.9236
2140.00 1493.3722 1037.6708 34.6488 1.9162
2150.00 1493.5141 1037.7179 34.6494 1.9088
2160.00 1493.6560 1037.7651 34.6499 1.9013
2170.00 1493.7980 1037.8122 34.6505 1.8939
2180.00 1493.9399 1037.8594 34.6511 1.8865
2190.00 1494.0818 1037.9065 34.6516 1.8791
2200.00 1494.2237 1037.9537 34.6522 1.8717
2210.00 1494.3657 1038.0008 34.6527 1.8643
2220.00 1494.5076 1038.0480 34.6533 1.8569
2230.00 1494.6495 1038.0952 34.6538 1.8494
2240.00 1494.7914 1038.1423 34.6544 1.8420
2250.00 1494.9334 1038.1895 34.6550 1.8346
2260.00 1495.0753 1038.2366 34.6555 1.8272
2270.00 1495.2172 1038.2838 34.6561 1.8198
2280.00 1495.3619 1038.3308 34.6566 1.8129
2290.00 1495.5110 1038.3775 34.6570 1.8070
2300.00 1495.6601 1038.4242 34.6574 1.8011
2310.00 1495.8093 1038.4709 34.6578 1.7951
2320.00 1495.9584 1038.5177 34.6582 1.7892
2330.00 1496.1075 1038.5644 34.6587 1.7833
2340.00 1496.2566 1038.6111 34.6591 1.7773
2350.00 1496.4058 1038.6579 34.6595 1.7714
2360.00 1496.5549 1038.7046 34.6599 1.7655
2370.00 1496.7040 1038.7513 34.6603 1.7595
2380.00 1496.8531 1038.7981 34.6607 1.7536
2390.00 1497.0023 1038.8448 34.6612 1.7477
2400.00 1497.1514 1038.8915 34.6616 1.7417
2410.00 1497.3005 1038.9383 34.6620 1.7358
2420.00 1497.4497 1038.9850 34.6624 1.7299
2430.00 1497.5988 1039.0317 34.6628 1.7239
2440.00 1497.7479 1039.0785 34.6632 1.7180
2450.00 1497.8970 1039.1252 34.6636 1.7121
2460.00 1498.0462 1039.1719 34.6641 1.7061
2470.00 1498.1953 1039.2187 34.6645 1.7002
2480.00 1498.3444 1039.2654 34.6649 1.6943
2490.00 1498.4935 1039.3121 34.6653 1.6883
2500.00 1498.6469 1039.3586 34.6656 1.6832
2510.00 1498.8008 1039.4050 34.6660 1.6782
2520.00 1498.9548 1039.4514 34.6663 1.6731
2530.00 1499.1087 1039.4978 34.6666 1.6681
2540.00 1499.2627 1039.5442 34.6669 1.6631
2550.00 1499.4167 1039.5906 34.6672 1.6580
2560.00 1499.5706 1039.6370 34.6675 1.6530
2570.00 1499.7246 1039.6834 34.6678 1.6480
2580.00 1499.8785 1039.7298 34.6682 1.6429
2590.00 1500.0325 1039.7762 34.6685 1.6379
2600.00 1500.1864 1039.8225 34.6688 1.6329
2610.00 1500.3404 1039.8689 34.6691 1.6279
2620.00 1500.4943 1039.9153 34.6694 1.6228
2630.00 1500.6483 1039.9617 34.6697 1.6178
2640.00 1500.8022 1040.0081 34.6700 1.6128
2650.00 1500.9562 1040.0545 34.6704 1.6077
2660.00 1501.1101 1040.1009 34.6707 1.6027
2670.00 1501.2641 1040.1473 34.6710 1.5977
2680.00 1501.4180 1040.1937 34.6713 1.5926
2690.00 1501.5720 1040.2401 34.6716 1.5876
2700.00 1501.7259 1040.2865 34.6719 1.5826
2710.00 1501.8799 1040.3329 34.6723 1.5776
2720.00 1502.0338 1040.3793 34.6726 1.5725
2730.00 1502.1880 1040.4257 34.6729 1.5675
2740.00 1502.3454 1040.4718 34.6731 1.5631
2750.00 1502.5028 1040.5179 34.6734 1.5586
2760.00 1502.6601 1040.5640 34.6736 1.5541
2770.00 1502.8175 1040.6102 34.6739 1.5496
2780.00 1502.9749 1040.6563 34.6741 1.5452
2790.00 1503.1322 1040.7024 34.6743 1.5407
2800.00 1503.2896 1040.7485 34.6746 1.5362
2810.00 1503.4470 1040.7946 34.6748 1.5317
2820.00 1503.6043 1040.8407 34.6751 1.5272
2830.00 1503.7617 1040.8869 34.6753 1.5228
2840.00 1503.9191 1040.9330 34.6756 1.5183
2850.00 1504.0764 1040.9791 34.6758 1.5138
2860.00 1504.2338 1041.0252 34.6761 1.5093
2870.00 1504.3912 1041.0713 34.6763 1.5049
2880.00 1504.5485 1041.1174 34.6765 1.5004
2890.00 1504.7059 1041.1636 34.6768 1.4959
2900.00 1504.8633 1041.2097 34.6770 1.4914
2910.00 1505.0206 1041.2558 34.6773 1.4870
2920.00 1505.1780 1041.3019 34.6775 1.4825
2930.00 1505.3354 1041.3480 34.6778 1.4780
2940.00 1505.4928 1041.3941 34.6780 1.4735
2950.00 1505.6501 1041.4402 34.6783 1.4691
2960.00 1505.8075 1041.4864 34.6785 1.4646
2970.00 1505.9649 1041.5325 34.6787 1.4601
2980.00 1506.1222 1041.5786 34.6790 1.4556
2990.00 1506.2796 1041.6247 34.6792 1.4511
3000.00 1506.4403 1041.6706 34.6794 1.4472
3010.00 1506.6011 1041.7164 34.6796 1.4432
3020.00 1506.7619 1041.7622 34.6798 1.4393
3030.00 1506.9228 1041.8080 34.6800 1.4353
3040.00 1507.0836 1041.8539 34.6802 1.4314
3050.00 1507.2444 1041.8997 34.6804 1.4275
3060.00 1507.4052 1041.9455 34.6806 1.4235
3070.00 1507.5660 1041.9914 34.6808 1.4196
3080.00 1507.7268 1042.0372 34.6810 1.4156
3090.00 1507.8876 1042.0830 34.6812 1.4117
3100.00 1508.0485 1042.1289 34.6814 1.4077
3110.00 1508.2093 1042.1747 34.6815 1.4038
3120.00 1508.3701 1042.2205 34.6817 1.3998
3130.00 1508.5309 1042.2664 34.6819 1.3959
3140.00 1508.6917 1042.3122 34.6821 1.3919
3150.00 1508.8525 1042.3580 34.6823 1.3880
3160.00 1509.0133 1042.4039 34.6825 1.3840
3170.00 1509.1742 1042.4497 34.6827 1.3801
3180.00 1509.3350 1042.4955 34.6829 1.3762
3190.00 1509.4958 1042.5414 34.6831 1.3722
3200.00 1509.6566 1042.5872 34.6833 1.3683
3210.00 1509.8174 1042.6330 34.6835 1.3643
3220.00 1509.9782 1042.6789 34.6837 1.3604
3230.00 1510.1390 1042.7247 34.6839 1.3564
3240.00 1510.2999 1042.7705 34.6841 1.3525
3250.00 1510.4607 1042.8163 34.6843 1.3485
3260.00 1510.6215 1042.8622 34.6844 1.3446
3270.00 1510.7823 1042.9080 34.6846 1.3406
3280.00 1510.9455 1042.9537 34.6848 1.3371
3290.00 1511.1106 1042.9992 34.6850 1.3338
3300.00 1511.2756 1043.0447 34.6851 1.3305
3310.00 1511.4406 1043.0902 34.6853 1.3273
3320.00 1511.6057 1043.1357 34.6854 1.3240
3330.00 1511.7707 1043.1812 34.6856 1.3207
3340.00 1511.9357 1043.2267 34.6857 1.3175
3350.00 1512.1007 1043.2722 34.6859 1.3142
3360.00 1512.2658 1043.3177 34.6860 1.3109
3370.00 1512.4308 1043.3632 34.6862 1.3077
3380.00 1512.5958 1043.4087 34.6863 1.3044
3390.00 1512.7609 1043.4542 34.6865 1.3011
3400.00 1512.9259 1043.4998 34.6866 1.2979
3410.00 1513.0909 1043.5453 34.6868 1.2946
3420.00 1513.2559 1043.5908 34.6869 1.2913
3430.00 1513.4210 1043.6363 34.6871 1.2881
3440.00 1513.5860 1043.6818 34.6872 1.2848
3450.00 1513.7510 1043.7273 34.6874 1.2815
3460.00 1513.9161 1043.7728 34.6875 1.2783
3470.00 1514.0811 1043.8183 34.6877 1.2750
3480.00 1514.2461 1043.8638 34.6878 1.2717
3490.00 1514.4112 1043.9093 34.6880 1.2685
3500.00 1514.5762 1043.9548 34.6881 1.2652
3510.00 1514.7412 1044.0003 34.6883 1.2619
3520.00 1514.9062 1044.0459 34.6884 1.2587
3530.00 1515.0713 1044.0914 34.6886 1.2554
3540.00 1515.2363 1044.1369 34.6887 1.2521
3550.00 1515.4013 1044.1824 34.6889 1.2488
3560.00 1515.5664 1044.2279 34.6890 1.2456
3570.00 1515.7314 1044.2734 34.6892 1.2423
3580.00 1515.8964 1044.3189 34.6893 1.2390
3590.00 1516.0665 1044.3641 34.6895 1.2367
3600.00 1516.2372 1044.4092 34.6896 1.2344
3610.00 1516.4080 1044.4543 34.6897 1.2321
3620.00 1516.5788 1044.4994 34.6898 1.2299
3630.00 1516.7496 1044.5445 34.6899 1.2276
3640.00 1516.9204 1044.5896 34.6900 1.2253
3650.00 1517.0911 1044.6347 34.6901 1.2231
3660.00 1517.2619 1044.6798 34.6902 1.2208
3670.00 1517.4327 1044.7249 34.6903 1.2185
3680.00 1517.6035 1044.7700 34.6904 1.2163
3690.00 1517.7742 1044.8151 34.6905 1.2140
3700.00 1517.9450 1044.8602 34.6906 1.2117
3710.00 1518.1158 1044.9053 34.6908 1.2095
3720.00 1518.2866 1044.9504 34.6909 1.2072
3730.00 1518.4574 1044.9955 34.6910 1.2049
3740.00 1518.6281 1045.0406 34.6911 1.2027
3750.00 1518.7989 1045.0857 34.6912 1.2004
3760.00 1518.9697 1045.1308 34.6913 1.1981
3770.00 1519.1405 1045.1759 34.6914 1.1959
3780.00 1519.3112 1045.2210 34.6915 1.1936
3790.00 1519.4820 1045.2661 34.6916 1.1913
3800.00 1519.6528 1045.3112 34.6917 1.1891
3810.00 1519.8236 1045.3563 34.6918 1.1868
3820.00 1519.9944 1045.4014 34.6919 1.1846
3830.00 1520.1651 1045.4465 34.6920 1.1823
3840.00 1520.3359 1045.4916 34.6922 1.1800
3850.00 1520.5067 1045.5367 34.6923 1.1778
3860.00 1520.6775 1045.5818 34.6924 1.1755
3870.00 1520.8483 1045.6269 34.6925 1.1732
3880.00 1521.0190 1045.6720 34.6926 1.1710
3890.00 1521.1898 1045.7171 34.6927 1.1687
3900.00 1521.3606 1045.7622 34.6928 1.1664
3910.00 1521.5314 1045.8073 34.6929 1.1642
3920.00 1521.7079 1045.8520 34.6930 1.1629
3930.00 1521.8852 1045.8966 34.6930 1.1618
3940.00 1522.0625 1045.9412 34.6931 1.1608
3950.00 1522.2399 1045.9858 34.6931 1.1597
3960.00 1522.4172 1046.0304 34.6932 1.1586
3970.00 1522.5945 1046.0751 34.6933 1.1575
3980.00 1522.7719 1046.1197 34.6933 1.1564
3990.00 1522.9492 1046.1643 34.6934 1.1553
4000.00 1523.1265 1046.2089 34.6934 1.1542
4010.00 1523.3039 1046.2535 34.6935 1.1531
4020.00 1523.4812 1046.2982 34.6935 1.1520
4030.00 1523.6585 1046.3428 34.6936 1.1510
4040.00 1523.8359 1046.3874 34.6937 1.1499
4050.00 1524.0132 1046.4320 34.6937 1.1488
4060.00 1524.1905 1046.4766 34.6938 1.1477
4070.00 1524.3679 1046.5213 34.6938 1.1466
