# Averages over distance (i) for each depth (k):
# Depth(m) Speed(m/s) Density(kg/m^3) Salt PSU Theta(degC)
0.00 1543.6510 1022.5501 35.5705 28.8286
10.00 1543.7968 1022.6005 35.5742 28.8149
20.00 1543.9299 1022.6661 35.5921 28.7876
30.00 1544.0048 1022.7657 35.6368 28.7188
40.00 1543.9968 1022.8927 35.6973 28.6029
50.00 1543.9220 1023.0324 35.7604 28.4548
60.00 1543.7843 1023.1809 35.8231 28.2784
70.00 1543.5681 1023.3413 35.8863 28.0666
80.00 1543.2427 1023.5185 35.9506 27.8054
90.00 1542.7738 1023.7164 36.0157 27.4809
100.00 1542.1248 1023.9381 36.0802 27.0792
110.00 1541.2444 1024.1877 36.1425 26.5814
120.00 1540.1295 1024.4582 36.1970 25.9930
130.00 1538.9001 1024.7231 36.2342 25.3736
140.00 1537.7130 1024.9571 36.2494 24.7929
150.00 1536.7516 1025.1306 36.2363 24.3311
160.00 1535.8529 1025.2826 36.2109 23.9057
170.00 1535.0048 1025.4173 36.1757 23.5099
180.00 1534.0529 1025.5459 36.1249 23.0878
190.00 1533.0681 1025.6727 36.0692 22.6573
200.00 1531.8921 1025.8057 36.0025 22.1673
210.00 1530.5440 1025.9443 35.9260 21.6237
220.00 1529.1959 1026.0829 35.8495 21.0801
230.00 1527.5425 1026.2308 35.7638 20.4521
240.00 1525.7755 1026.3821 35.6746 19.7927
250.00 1524.0086 1026.5334 35.5855 19.1332
260.00 1522.1958 1026.6834 35.4981 18.4696
270.00 1520.2475 1026.8293 35.4155 17.7936
280.00 1518.2992 1026.9753 35.3330 17.1175
290.00 1516.3509 1027.1212 35.2504 16.4415
300.00 1514.4040 1027.2669 35.1680 15.7661
310.00 1512.6438 1027.3906 35.1077 15.1915
320.00 1510.8836 1027.5142 35.0475 14.6168
330.00 1509.1234 1027.6379 34.9872 14.0421
340.00 1507.3632 1027.7615 34.9269 13.4674
350.00 1505.6031 1027.8852 34.8666 12.8928
360.00 1504.2315 1027.9861 34.8294 12.4591
370.00 1502.8884 1028.0855 34.7938 12.0358
380.00 1501.5452 1028.1848 34.7582 11.6125
390.00 1500.2021 1028.2841 34.7226 11.1891
400.00 1498.8589 1028.3834 34.6870 10.7658
410.00 1497.5189 1028.4826 34.6515 10.3434
420.00 1496.6296 1028.5634 34.6345 10.0610
430.00 1495.7403 1028.6442 34.6174 9.7786
440.00 1494.8510 1028.7251 34.6003 9.4961
450.00 1493.9617 1028.8059 34.5832 9.2137
460.00 1493.0724 1028.8867 34.5662 8.9312
470.00 1492.1830 1028.9676 34.5491 8.6488
480.00 1491.3878 1029.0453 34.5347 8.3930
490.00 1490.8703 1029.1139 34.5284 8.2157
500.00 1490.3528 1029.1825 34.5220 8.0384
510.00 1489.8352 1029.2511 34.5157 7.8611
520.00 1489.3177 1029.3197 34.5093 7.6838
530.00 1488.8002 1029.3883 34.5030 7.5065
540.00 1488.2827 1029.4569 34.4966 7.3292
550.00 1487.7652 1029.5255 34.4903 7.1519
560.00 1487.4233 1029.5887 34.4873 7.0218
570.00 1487.1467 1029.6498 34.4857 6.9092
580.00 1486.8701 1029.7110 34.4841 6.7966
590.00 1486.5935 1029.7721 34.4825 6.6840
600.00 1486.3170 1029.8333 34.4808 6.5714
610.00 1486.0404 1029.8944 34.4792 6.4588
620.00 1485.7638 1029.9556 34.4776 6.3463
630.00 1485.4872 1030.0168 34.4759 6.2337
640.00 1485.2808 1030.0757 34.4752 6.1394
650.00 1485.1375 1030.1327 34.4754 6.0617
660.00 1484.9942 1030.1897 34.4755 5.9840
670.00 1484.8508 1030.2467 34.4756 5.9063
680.00 1484.7075 1030.3037 34.4758 5.8286
690.00 1484.5642 1030.3608 34.4759 5.7509
700.00 1484.4209 1030.4178 34.4760 5.6731
710.00 1484.2776 1030.4748 34.4762 5.5954
720.00 1484.1342 1030.5318 34.4763 5.5177
730.00 1484.0504 1030.5870 34.4771 5.4552
740.00 1483.9853 1030.6417 34.4781 5.3976
750.00 1483.9202 1030.6964 34.4791 5.3399
760.00 1483.8551 1030.7511 34.4801 5.2822
770.00 1483.7900 1030.8058 34.4811 5.2245
780.00 1483.7249 1030.8605 34.4821 5.1669
790.00 1483.6598 1030.9152 34.4831 5.1092
800.00 1483.5947 1030.9699 34.4841 5.0515
810.00 1483.5296 1031.0246 34.4851 4.9939
820.00 1483.4923 1031.0785 34.4864 4.9432
830.00 1483.4776 1031.1318 34.4880 4.8982
840.00 1483.4630 1031.1850 34.4895 4.8533
850.00 1483.4483 1031.2383 34.4910 4.8083
860.00 1483.4336 1031.2916 34.4925 4.7633
870.00 1483.4189 1031.3448 34.4940 4.7184
880.00 1483.4042 1031.3981 34.4955 4.6734
890.00 1483.3895 1031.4514 34.4970 4.6284
900.00 1483.3748 1031.5047 34.4986 4.5834
910.00 1483.3609 1031.5579 34.5001 4.5387
920.00 1483.3756 1031.6103 34.5018 4.5011
930.00 1483.3902 1031.6626 34.5034 4.4635
940.00 1483.4049 1031.7150 34.5051 4.4259
950.00 1483.4195 1031.7673 34.5068 4.3883
960.00 1483.4342 1031.8197 34.5085 4.3507
970.00 1483.4489 1031.8721 34.5102 4.3131
980.00 1483.4635 1031.9244 34.5118 4.2755
990.00 1483.4782 1031.9768 34.5135 4.2379
1000.00 1483.4929 1032.0291 34.5152 4.2003
1010.00 1483.5118 1032.0813 34.5168 4.1638
1020.00 1483.5415 1032.1331 34.5184 4.1301
1030.00 1483.5712 1032.1848 34.5200 4.0963
1040.00 1483.6009 1032.2365 34.5216 4.0626
1050.00 1483.6306 1032.2883 34.5232 4.0289
1060.00 1483.6603 1032.3400 34.5248 3.9951
1070.00 1483.6900 1032.3917 34.5264 3.9614
1080.00 1483.7196 1032.4435 34.5279 3.9277
1090.00 1483.7493 1032.4952 34.5295 3.8940
1100.00 1483.7790 1032.5469 34.5311 3.8602
1110.00 1483.8126 1032.5985 34.5326 3.8275
1120.00 1483.8519 1032.6497 34.5341 3.7963
1130.00 1483.8912 1032.7010 34.5355 3.7651
1140.00 1483.9305 1032.7522 34.5369 3.7339
1150.00 1483.9698 1032.8035 34.5384 3.7027
1160.00 1484.0090 1032.8547 34.5398 3.6714
1170.00 1484.0483 1032.9060 34.5412 3.6402
1180.00 1484.0876 1032.9572 34.5427 3.6090
1190.00 1484.1269 1033.0085 34.5441 3.5778
1200.00 1484.1661 1033.0597 34.5455 3.5466
1210.00 1484.2099 1033.1108 34.5469 3.5165
1220.00 1484.2592 1033.1616 34.5482 3.4878
1230.00 1484.3085 1033.2124 34.5496 3.4591
1240.00 1484.3578 1033.2632 34.5509 3.4304
1250.00 1484.4071 1033.3140 34.5522 3.4018
1260.00 1484.4564 1033.3648 34.5535 3.3731
1270.00 1484.5057 1033.4156 34.5549 3.3444
1280.00 1484.5550 1033.4664 34.5562 3.3157
1290.00 1484.6043 1033.5172 34.5575 3.2870
1300.00 1484.6536 1033.5680 34.5589 3.2584
1310.00 1484.7074 1033.6187 34.5602 3.2308
1320.00 1484.7688 1033.6690 34.5614 3.2050
1330.00 1484.8301 1033.7194 34.5627 3.1792
1340.00 1484.8914 1033.7698 34.5640 3.1535
1350.00 1484.9527 1033.8201 34.5653 3.1277
1360.00 1485.0140 1033.8705 34.5666 3.1020
1370.00 1485.0753 1033.9209 34.5678 3.0762
1380.00 1485.1366 1033.9713 34.5691 3.0504
1390.00 1485.1979 1034.0216 34.5704 3.0247
1400.00 1485.2592 1034.0720 34.5717 2.9989
1410.00 1485.3217 1034.1223 34.5730 2.9734
1420.00 1485.3967 1034.1722 34.5742 2.9509
1430.00 1485.4717 1034.2221 34.5755 2.9284
1440.00 1485.5467 1034.2721 34.5767 2.9058
1450.00 1485.6217 1034.3220 34.5780 2.8833
1460.00 1485.6967 1034.3719 34.5792 2.8608
1470.00 1485.7717 1034.4218 34.5805 2.8383
1480.00 1485.8467 1034.4717 34.5817 2.8157
1490.00 1485.9217 1034.5216 34.5830 2.7932
1500.00 1485.9967 1034.5715 34.5842 2.7707
1510.00 1486.0717 1034.6214 34.5855 2.7482
1520.00 1486.1511 1034.6712 34.5867 2.7267
1530.00 1486.2413 1034.7205 34.5879 2.7077
1540.00 1486.3315 1034.7699 34.5891 2.6887
1550.00 1486.4217 1034.8193 34.5902 2.6697
1560.00 1486.5119 1034.8686 34.5914 2.6507
1570.00 1486.6021 1034.9180 34.5926 2.6317
1580.00 1486.6923 1034.9674 34.5938 2.6127
1590.00 1486.7825 1035.0167 34.5950 2.5937
1600.00 1486.8727 1035.0661 34.5962 2.5747
1610.00 1486.9629 1035.1155 34.5973 2.5558
1620.00 1487.0531 1035.1648 34.5985 2.5368
1630.00 1487.1433 1035.2142 34.5997 2.5178
1640.00 1487.2427 1035.2632 34.6008 2.5009
1650.00 1487.3488 1035.3120 34.6019 2.4856
1660.00 1487.4549 1035.3608 34.6029 2.4702
1670.00 1487.5609 1035.4096 34.6040 2.4548
1680.00 1487.6670 1035.4583 34.6051 2.4395
1690.00 1487.7731 1035.5071 34.6061 2.4241
1700.00 1487.8791 1035.5559 34.6072 2.4088
1710.00 1487.9852 1035.6047 34.6083 2.3934
1720.00 1488.0913 1035.6534 34.6093 2.3781
1730.00 1488.1973 1035.7022 34.6104 2.3627
1740.00 1488.3034 1035.7510 34.6114 2.3474
1750.00 1488.4095 1035.7998 34.6125 2.3320
1760.00 1488.5155 1035.8485 34.6136 2.3166
1770.00 1488.6287 1035.8970 34.6145 2.3029
1780.00 1488.7494 1035.9452 34.6155 2.2908
1790.00 1488.8700 1035.9934 34.6164 2.2788
1800.00 1488.9907 1036.0416 34.6173 2.2667
1810.00 1489.1113 1036.0898 34.6182 2.2546
1820.00 1489.2320 1036.1380 34.6191 2.2426
1830.00 1489.3527 1036.1862 34.6200 2.2305
1840.00 1489.4733 1036.2343 34.6209 2.2185
1850.00 1489.5940 1036.2825 34.6218 2.2064
1860.00 1489.7146 1036.3307 34.6227 2.1943
1870.00 1489.8353 1036.3789 34.6236 2.1823
1880.00 1489.9559 1036.4271 34.6245 2.1702
1890.00 1490.0766 1036.4753 34.6255 2.1581
1900.00 1490.1973 1036.5234 34.6264 2.1461
1910.00 1490.3179 1036.5716 34.6273 2.1340
1920.00 1490.4455 1036.6195 34.6281 2.1235
1930.00 1490.5780 1036.6672 34.6288 2.1140
1940.00 1490.7106 1036.7148 34.6296 2.1046
1950.00 1490.8431 1036.7625 34.6303 2.0951
1960.00 1490.9756 1036.8101 34.6311 2.0857
1970.00 1491.1082 1036.8578 34.6318 2.0763
1980.00 1491.2407 1036.9054 34.6326 2.0668
1990.00 1491.3732 1036.9531 34.6333 2.0574
2000.00 1491.5057 1037.0007 34.6341 2.0479
2010.00 1491.6383 1037.0484 34.6348 2.0385
2020.00 1491.7708 1037.0961 34.6356 2.0291
2030.00 1491.9033 1037.1437 34.6363 2.0196
2040.00 1492.0359 1037.1914 34.6371 2.0102
2050.00 1492.1684 1037.2390 34.6378 2.0007
2060.00 1492.3009 1037.2867 34.6386 1.9913
2070.00 1492.4334 1037.3343 34.6393 1.9818
2080.00 1492.5660 1037.3820 34.6401 1.9724
2090.00 1492.7038 1037.4294 34.6407 1.9641
2100.00 1492.8452 1037.4766 34.6413 1.9565
2110.00 1492.9865 1037.5238 34.6419 1.9490
2120.00 1493.1279 1037.5710 34.6425 1.9414
2130.00 1493.2693 1037.6181 34.6431 1.9339
2140.00 1493.4107 1037.6653 34.6437 1.9263
2150.00 1493.5521 1037.7125 34.6443 1.9188
2160.00 1493.6934 1037.7597 34.6449 1.9113
2170.00 1493.8348 1037.8069 34.6454 1.9037
2180.00 1493.9762 1037.8541 34.6460 1.8962
2190.00 1494.1176 1037.9013 34.6466 1.8886
2200.00 1494.2590 1037.9485 34.6472 1.8811
2210.00 1494.4004 1037.9957 34.6478 1.8735
2220.00 1494.5417 1038.0429 34.6484 1.8660
2230.00 1494.6831 1038.0901 34.6490 1.8584
2240.00 1494.8245 1038.1373 34.6496 1.8509
2250.00 1494.9659 1038.1845 34.6502 1.8433
2260.00 1495.1073 1038.2317 34.6508 1.8358
2270.00 1495.2487 1038.2789 34.6513 1.8282
2280.00 1495.3926 1038.3259 34.6519 1.8212
2290.00 1495.5408 1038.3727 34.6523 1.8151
2300.00 1495.6889 1038.4195 34.6528 1.8089
2310.00 1495.8371 1038.4663 34.6532 1.8027
2320.00 1495.9853 1038.5131 34.6537 1.7966
2330.00 1496.1334 1038.5598 34.6541 1.7904
2340.00 1496.2816 1038.6066 34.6545 1.7843
2350.00 1496.4298 1038.6534 34.6550 1.7781
2360.00 1496.5779 1038.7002 34.6554 1.7719
2370.00 1496.7261 1038.7470 34.6559 1.7658
2380.00 1496.8743 1038.7938 34.6563 1.7596
2390.00 1497.0225 1038.8406 34.6568 1.7535
2400.00 1497.1706 1038.8874 34.6572 1.7473
2410.00 1497.3188 1038.9341 34.6577 1.7412
2420.00 1497.4670 1038.9809 34.6581 1.7350
2430.00 1497.6151 1039.0277 34.6586 1.7288
2440.00 1497.7633 1039.0745 34.6590 1.7227
2450.00 1497.9115 1039.1213 34.6594 1.7165
2460.00 1498.0596 1039.1681 34.6599 1.7104
2470.00 1498.2078 1039.2149 34.6603 1.7042
2480.00 1498.3560 1039.2616 34.6608 1.6980
2490.00 1498.5041 1039.3084 34.6612 1.6919
2500.00 1498.6571 1039.3549 34.6616 1.6867
2510.00 1498.8108 1039.4013 34.6619 1.6816
2520.00 1498.9645 1039.4478 34.6623 1.6765
2530.00 1499.1182 1039.4942 34.6626 1.6714
2540.00 1499.2719 1039.5406 34.6629 1.6663
2550.00 1499.4256 1039.5870 34.6633 1.6612
2560.00 1499.5792 1039.6335 34.6636 1.6561
2570.00 1499.7329 1039.6799 34.6639 1.6510
2580.00 1499.8866 1039.7263 34.6643 1.6459
2590.00 1500.0403 1039.7727 34.6646 1.6408
2600.00 1500.1940 1039.8192 34.6650 1.6357
2610.00 1500.3477 1039.8656 34.6653 1.6306
2620.00 1500.5013 1039.9120 34.6656 1.6255
2630.00 1500.6550 1039.9584 34.6660 1.6204
2640.00 1500.8087 1040.0049 34.6663 1.6153
2650.00 1500.9624 1040.0513 34.6666 1.6102
2660.00 1501.1161 1040.0977 34.6670 1.6051
2670.00 1501.2698 1040.1441 34.6673 1.6000
2680.00 1501.4234 1040.1906 34.6677 1.5949
2690.00 1501.5771 1040.2370 34.6680 1.5898
2700.00 1501.7308 1040.2834 34.6683 1.5847
2710.00 1501.8845 1040.3298 34.6687 1.5796
2720.00 1502.0382 1040.3763 34.6690 1.5745
2730.00 1502.1922 1040.4227 34.6693 1.5695
2740.00 1502.3504 1040.4688 34.6696 1.5652
2750.00 1502.5086 1040.5149 34.6699 1.5609
2760.00 1502.6667 1040.5610 34.6701 1.5566
2770.00 1502.8249 1040.6071 34.6704 1.5523
2780.00 1502.9831 1040.6532 34.6707 1.5480
2790.00 1503.1413 1040.6993 34.6710 1.5437
2800.00 1503.2995 1040.7454 34.6712 1.5394
2810.00 1503.4577 1040.7915 34.6715 1.5350
2820.00 1503.6159 1040.8377 34.6718 1.5307
2830.00 1503.7740 1040.8838 34.6721 1.5264
2840.00 1503.9322 1040.9299 34.6723 1.5221
2850.00 1504.0904 1040.9760 34.6726 1.5178
2860.00 1504.2486 1041.0221 34.6729 1.5135
2870.00 1504.4068 1041.0682 34.6731 1.5092
2880.00 1504.5650 1041.1143 34.6734 1.5049
2890.00 1504.7231 1041.1604 34.6737 1.5006
2900.00 1504.8813 1041.2065 34.6740 1.4963
2910.00 1505.0395 1041.2526 34.6742 1.4920
2920.00 1505.1977 1041.2988 34.6745 1.4877
2930.00 1505.3559 1041.3449 34.6748 1.4834
2940.00 1505.5141 1041.3910 34.6751 1.4791
2950.00 1505.6722 1041.4371 34.6753 1.4748
2960.00 1505.8304 1041.4832 34.6756 1.4705
2970.00 1505.9886 1041.5293 34.6759 1.4662
2980.00 1506.1468 1041.5754 34.6761 1.4619
2990.00 1506.3050 1041.6215 34.6764 1.4576
3000.00 1506.4666 1041.6674 34.6767 1.4538
3010.00 1506.6282 1041.7132 34.6769 1.4500
3020.00 1506.7899 1041.7590 34.6771 1.4463
3030.00 1506.9516 1041.8049 34.6774 1.4425
3040.00 1507.1133 1041.8507 34.6776 1.4387
3050.00 1507.2749 1041.8965 34.6778 1.4350
3060.00 1507.4366 1041.9424 34.6781 1.4312
3070.00 1507.5983 1041.9882 34.6783 1.4274
3080.00 1507.7600 1042.0340 34.6786 1.4237
3090.00 1507.9216 1042.0799 34.6788 1.4199
3100.00 1508.0833 1042.1257 34.6790 1.4161
3110.00 1508.2450 1042.1716 34.6793 1.4124
3120.00 1508.4067 1042.2174 34.6795 1.4086
3130.00 1508.5683 1042.2632 34.6798 1.4048
3140.00 1508.7300 1042.3091 34.6800 1.4011
3150.00 1508.8917 1042.3549 34.6802 1.3973
3160.00 1509.0534 1042.4007 34.6805 1.3935
3170.00 1509.2150 1042.4466 34.6807 1.3898
3180.00 1509.3767 1042.4924 34.6809 1.3860
3190.00 1509.5384 1042.5382 34.6812 1.3822
3200.00 1509.7000 1042.5841 34.6814 1.3785
3210.00 1509.8617 1042.6299 34.6817 1.3747
3220.00 1510.0234 1042.6757 34.6819 1.3709
3230.00 1510.1851 1042.7216 34.6821 1.3671
3240.00 1510.3467 1042.7674 34.6824 1.3634
3250.00 1510.5084 1042.8132 34.6826 1.3596
3260.00 1510.6701 1042.8591 34.6829 1.3558
3270.00 1510.8318 1042.9049 34.6831 1.3521
3280.00 1510.9944 1042.9506 34.6833 1.3484
3290.00 1511.1579 1042.9962 34.6836 1.3447
3300.00 1511.3213 1043.0419 34.6838 1.3411
3310.00 1511.4847 1043.0875 34.6840 1.3374
3320.00 1511.6481 1043.1331 34.6843 1.3338
3330.00 1511.8115 1043.1788 34.6845 1.3301
3340.00 1511.9749 1043.2244 34.6847 1.3265
3350.00 1512.1384 1043.2700 34.6850 1.3228
3360.00 1512.3018 1043.3156 34.6852 1.3192
3370.00 1512.4652 1043.3613 34.6854 1.3155
3380.00 1512.6286 1043.4069 34.6857 1.3119
3390.00 1512.7920 1043.4525 34.6859 1.3082
3400.00 1512.9554 1043.4982 34.6862 1.3046
3410.00 1513.1189 1043.5438 34.6864 1.3009
3420.00 1513.2823 1043.5894 34.6866 1.2973
3430.00 1513.4457 1043.6350 34.6869 1.2936
3440.00 1513.6091 1043.6807 34.6871 1.2900
3450.00 1513.7725 1043.7263 34.6873 1.2863
3460.00 1513.9359 1043.7719 34.6876 1.2827
3470.00 1514.0994 1043.8176 34.6878 1.2790
3480.00 1514.2628 1043.8632 34.6880 1.2754
3490.00 1514.4262 1043.9088 34.6883 1.2717
3500.00 1514.5896 1043.9544 34.6885 1.2681
3510.00 1514.7530 1044.0001 34.6887 1.2644
3520.00 1514.9164 1044.0457 34.6890 1.2608
3530.00 1515.0799 1044.0913 34.6892 1.2571
3540.00 1515.2433 1044.1370 34.6894 1.2535
3550.00 1515.4067 1044.1826 34.6897 1.2498
3560.00 1515.5701 1044.2282 34.6899 1.2462
3570.00 1515.7335 1044.2738 34.6901 1.2425
3580.00 1515.8969 1044.3195 34.6904 1.2389
3590.00 1516.0612 1044.3650 34.6906 1.2351
3600.00 1516.2256 1044.4104 34.6909 1.2314
3610.00 1516.3899 1044.4559 34.6911 1.2277
3620.00 1516.5543 1044.5013 34.6914 1.2239
3630.00 1516.7187 1044.5468 34.6917 1.2202
3640.00 1516.8830 1044.5923 34.6919 1.2165
3650.00 1517.0474 1044.6377 34.6922 1.2127
3660.00 1517.2118 1044.6832 34.6924 1.2090
3670.00 1517.3762 1044.7287 34.6927 1.2053
3680.00 1517.5405 1044.7741 34.6929 1.2015
3690.00 1517.7049 1044.8196 34.6932 1.1978
3700.00 1517.8693 1044.8650 34.6935 1.1941
3710.00 1518.0337 1044.9105 34.6937 1.1903
3720.00 1518.1980 1044.9560 34.6940 1.1866
3730.00 1518.3624 1045.0014 34.6942 1.1829
3740.00 1518.5268 1045.0469 34.6945 1.1791
3750.00 1518.6911 1045.0924 34.6947 1.1754
3760.00 1518.8555 1045.1378 34.6950 1.1717
3770.00 1519.0199 1045.1833 34.6953 1.1679
3780.00 1519.1843 1045.2287 34.6955 1.1642
3790.00 1519.3486 1045.2742 34.6958 1.1605
3800.00 1519.5130 1045.3197 34.6960 1.1567
3810.00 1519.6774 1045.3651 34.6963 1.1530
3820.00 1519.8417 1045.4106 34.6965 1.1493
3830.00 1520.0061 1045.4561 34.6968 1.1455
3840.00 1520.1705 1045.5015 34.6971 1.1418
3850.00 1520.3349 1045.5470 34.6973 1.1381
3860.00 1520.4992 1045.5924 34.6976 1.1343
3870.00 1520.6636 1045.6379 34.6978 1.1306
3880.00 1520.8280 1045.6834 34.6981 1.1269
3890.00 1520.9923 1045.7288 34.6983 1.1231
3900.00 1521.1567 1045.7743 34.6986 1.1194
3910.00 1521.3211 1045.8198 34.6989 1.1157
3920.00 1521.4823 1045.8652 34.6991 1.1110
3930.00 1521.6430 1045.9107 34.6994 1.1061
3940.00 1521.8038 1045.9562 34.6997 1.1013
3950.00 1521.9645 1046.0016 34.7000 1.0964
3960.00 1522.1253 1046.0471 34.7003 1.0916
3970.00 1522.2860 1046.0926 34.7006 1.0867
3980.00 1522.4468 1046.1381 34.7009 1.0819
3990.00 1522.6075 1046.1835 34.7011 1.0770
4000.00 1522.7683 1046.2290 34.7014 1.0722
4010.00 1522.9290 1046.2745 34.7017 1.0673
4020.00 1523.0898 1046.3199 34.7020 1.0625
4030.00 1523.2505 1046.3654 34.7023 1.0576
4040.00 1523.4113 1046.4109 34.7026 1.0528
4050.00 1523.5720 1046.4563 34.7029 1.0479
4060.00 1523.7328 1046.5018 34.7031 1.0431
4070.00 1523.8935 1046.5473 34.7034 1.0382
4080.00 1524.0543 1046.5928 34.7037 1.0334
4090.00 1524.2150 1046.6382 34.7040 1.0285
4100.00 1524.3757 1046.6837 34.7043 1.0237
4110.00 1524.5365 1046.7292 34.7046 1.0188
4120.00 1524.6972 1046.7746 34.7049 1.0140
4130.00 1524.8580 1046.8201 34.7051 1.0091
4140.00 1525.0187 1046.8656 34.7054 1.0043
4150.00 1525.1795 1046.9111 34.7057 0.9994
4160.00 1525.3402 1046.9565 34.7060 0.9946
4170.00 1525.5010 1047.0020 34.7063 0.9897
4180.00 1525.6617 1047.0475 34.7066 0.9849
4190.00 1525.8225 1047.0929 34.7069 0.9800
4200.00 1525.9832 1047.1384 34.7071 0.9752
4210.00 1526.1440 1047.1839 34.7074 0.9703
4220.00 1526.3047 1047.2293 34.7077 0.9655
4230.00 1526.4655 1047.2748 34.7080 0.9606
4240.00 1526.6262 1047.3203 34.7083 0.9558
4250.00 1526.7870 1047.3658 34.7086 0.9509
4260.00 1526.9477 1047.4112 34.7089 0.9461
4270.00 1527.1072 1047.4566 34.7091 0.9408
4280.00 1527.2658 1047.5019 34.7093 0.9352
4290.00 1527.4244 1047.5473 34.7095 0.9295
4300.00 1527.5831 1047.5926 34.7097 0.9239
4310.00 1527.7417 1047.6379 34.7098 0.9183
4320.00 1527.9003 1047.6832 34.7100 0.9127
4330.00 1528.0589 1047.7286 34.7102 0.9071
4340.00 1528.2175 1047.7739 34.7104 0.9015
4350.00 1528.3761 1047.8192 34.7106 0.8959
4360.00 1528.5347 1047.8646 34.7108 0.8903
4370.00 1528.6933 1047.9099 34.7110 0.8847
4380.00 1528.8519 1047.9552 34.7112 0.8790
4390.00 1529.0105 1048.0005 34.7114 0.8734
4400.00 1529.1692 1048.0459 34.7115 0.8678
4410.00 1529.3278 1048.0912 34.7117 0.8622
4420.00 1529.4864 1048.1365 34.7119 0.8566
4430.00 1529.6450 1048.1818 34.7121 0.8510
4440.00 1529.8036 1048.2272 34.7123 0.8454
4450.00 1529.9622 1048.2725 34.7125 0.8398
4460.00 1530.1208 1048.3178 34.7127 0.8342
4470.00 1530.2794 1048.3631 34.7129 0.8285
4480.00 1530.4380 1048.4085 34.7131 0.8229
4490.00 1530.5966 1048.4538 34.7132 0.8173
4500.00 1530.7553 1048.4991 34.7134 0.8117
4510.00 1530.9139 1048.5445 34.7136 0.8061
4520.00 1531.0725 1048.5898 34.7138 0.8005
4530.00 1531.2311 1048.6351 34.7140 0.7949
4540.00 1531.3897 1048.6804 34.7142 0.7893
4550.00 1531.5483 1048.7258 34.7144 0.7837
4560.00 1531.7069 1048.7711 34.7146 0.7780
4570.00 1531.8655 1048.8164 34.7147 0.7724
4580.00 1532.0241 1048.8617 34.7149 0.7668
4590.00 1532.1827 1048.9071 34.7151 0.7612
4600.00 1532.3414 1048.9524 34.7153 0.7556
4610.00 1532.5000 1048.9977 34.7155 0.7500
4620.00 1532.6586 1049.0430 34.7157 0.7444
4630.00 1532.8172 1049.0884 34.7159 0.7388
4640.00 1532.9758 1049.1337 34.7161 0.7332
4650.00 1533.1475 1049.1782 34.7161 0.7302
4660.00 1533.3195 1049.2227 34.7162 0.7273
4670.00 1533.4915 1049.2672 34.7162 0.7243
4680.00 1533.6636 1049.3117 34.7163 0.7214
4690.00 1533.8356 1049.3562 34.7163 0.7185
4700.00 1534.0076 1049.4007 34.7164 0.7156
4710.00 1534.1796 1049.4452 34.7164 0.7127
4720.00 1534.3517 1049.4897 34.7165 0.7098
4730.00 1534.5237 1049.5342 34.7165 0.7069
4740.00 1534.6957 1049.5787 34.7166 0.7040
4750.00 1534.8678 1049.6232 34.7166 0.7010
4760.00 1535.0398 1049.6676 34.7167 0.6981
4770.00 1535.2118 1049.7121 34.7167 0.6952
4780.00 1535.3838 1049.7566 34.7168 0.6923
4790.00 1535.5559 1049.8011 34.7168 0.6894
4800.00 1535.7279 1049.8456 34.7169 0.6865
4810.00 1535.8999 1049.8901 34.7169 0.6836
4820.00 1536.0719 1049.9346 34.7170 0.6806
4830.00 1536.2440 1049.9791 34.7170 0.6777
4840.00 1536.4160 1050.0236 34.7171 0.6748
4850.00 1536.5880 1050.0681 34.7171 0.6719
4860.00 1536.7601 1050.1126 34.7172 0.6690
4870.00 1536.9321 1050.1571 34.7172 0.6661
4880.00 1537.1041 1050.2016 34.7173 0.6632
4890.00 1537.2761 1050.2461 34.7173 0.6602
4900.00 1537.4482 1050.2906 34.7174 0.6573
4910.00 1537.6202 1050.3351 34.7174 0.6544
4920.00 1537.7922 1050.3796 34.7175 0.6515
4930.00 1537.9642 1050.4240 34.7175 0.6486
4940.00 1538.1363 1050.4685 34.7176 0.6457
4950.00 1538.3083 1050.5130 34.7176 0.6428
4960.00 1538.4803 1050.5575 34.7177 0.6398
4970.00 1538.6524 1050.6020 34.7177 0.6369
4980.00 1538.8244 1050.6465 34.7178 0.6340
4990.00 1538.9964 1050.6910 34.7178 0.6311
5000.00 1539.1684 1050.7355 34.7179 0.6282
5010.00 1539.3405 1050.7800 34.7179 0.6253
