# Averages over distance (i) for each depth (k):
# Depth(m) Speed(m/s) Density(kg/m^3) Salt PSU Theta(degC)
0.00 1525.5842 1024.8780 35.5881 21.2460
10.00 1525.6707 1024.9314 35.5892 21.2140
20.00 1525.5649 1025.0064 35.5924 21.1091
30.00 1525.1036 1025.1189 35.5973 20.8713
40.00 1524.3984 1025.2537 35.6008 20.5457
50.00 1523.5782 1025.3962 35.6022 20.1820
60.00 1522.6994 1025.5403 35.6013 19.8018
70.00 1521.7661 1025.6847 35.5975 19.4075
80.00 1520.7901 1025.8280 35.5906 19.0038
90.00 1519.8193 1025.9658 35.5808 18.6076
100.00 1518.9133 1026.0938 35.5687 18.2390
110.00 1518.1355 1026.2081 35.5558 17.9183
120.00 1517.5361 1026.3068 35.5438 17.6607
130.00 1517.1083 1026.3916 35.5333 17.4624
140.00 1516.7961 1026.4673 35.5238 17.3036
150.00 1516.5179 1026.5391 35.5136 17.1574
160.00 1516.1853 1026.6131 35.5011 16.9946
170.00 1515.8085 1026.6888 35.4870 16.8183
180.00 1515.3168 1026.7690 35.4684 16.6074
190.00 1514.7888 1026.8505 35.4485 16.3857
200.00 1514.2046 1026.9330 35.4259 16.1487
210.00 1513.5698 1027.0164 35.4010 15.8980
220.00 1512.9351 1027.0998 35.3761 15.6472
230.00 1512.2661 1027.1817 35.3491 15.3905
240.00 1511.5844 1027.2630 35.3212 15.1315
250.00 1510.9026 1027.3444 35.2934 14.8725
260.00 1510.2077 1027.4251 35.2649 14.6115
270.00 1509.4737 1027.5040 35.2344 14.3444
280.00 1508.7397 1027.5828 35.2040 14.0774
290.00 1508.0058 1027.6617 35.1735 13.8104
300.00 1507.2714 1027.7405 35.1430 13.5433
310.00 1506.4828 1027.8164 35.1106 13.2696
320.00 1505.6941 1027.8923 35.0782 12.9959
330.00 1504.9055 1027.9682 35.0458 12.7222
340.00 1504.1168 1028.0441 35.0135 12.4485
350.00 1503.3282 1028.1200 34.9811 12.1748
360.00 1502.5757 1028.1905 34.9507 11.9204
370.00 1501.8260 1028.2607 34.9206 11.6674
380.00 1501.0762 1028.3309 34.8904 11.4144
390.00 1500.3264 1028.4011 34.8602 11.1614
400.00 1499.5766 1028.4712 34.8300 10.9085
410.00 1498.8280 1028.5414 34.7999 10.6558
420.00 1498.2464 1028.6042 34.7766 10.4563
430.00 1497.6648 1028.6670 34.7532 10.2568
440.00 1497.0832 1028.7298 34.7299 10.0573
450.00 1496.5017 1028.7926 34.7066 9.8578
460.00 1495.9201 1028.8554 34.6833 9.6583
470.00 1495.3385 1028.9182 34.6600 9.4588
480.00 1494.8077 1028.9795 34.6386 9.2738
490.00 1494.4271 1029.0366 34.6229 9.1317
500.00 1494.0464 1029.0937 34.6073 8.9897
510.00 1493.6657 1029.1508 34.5916 8.8477
520.00 1493.2850 1029.2079 34.5760 8.7056
530.00 1492.9043 1029.2650 34.5604 8.5636
540.00 1492.5237 1029.3221 34.5447 8.4216
550.00 1492.1430 1029.3792 34.5291 8.2795
560.00 1491.8728 1029.4340 34.5177 8.1675
570.00 1491.6436 1029.4881 34.5078 8.0666
580.00 1491.4145 1029.5421 34.4980 7.9657
590.00 1491.1854 1029.5961 34.4882 7.8648
600.00 1490.9562 1029.6502 34.4784 7.7640
610.00 1490.7271 1029.7042 34.4686 7.6631
620.00 1490.4980 1029.7582 34.4588 7.5622
630.00 1490.2688 1029.8122 34.4489 7.4613
640.00 1490.0856 1029.8657 34.4411 7.3726
650.00 1489.9435 1029.9187 34.4351 7.2947
660.00 1489.8015 1029.9716 34.4291 7.2169
670.00 1489.6595 1030.0246 34.4231 7.1390
680.00 1489.5175 1030.0775 34.4171 7.0611
690.00 1489.3754 1030.1305 34.4111 6.9833
700.00 1489.2334 1030.1835 34.4051 6.9054
710.00 1489.0914 1030.2364 34.3991 6.8276
720.00 1488.9493 1030.2894 34.3931 6.7497
730.00 1488.8342 1030.3425 34.3890 6.6790
740.00 1488.7276 1030.3958 34.3855 6.6105
750.00 1488.6210 1030.4490 34.3820 6.5421
760.00 1488.5144 1030.5022 34.3785 6.4736
770.00 1488.4077 1030.5554 34.3750 6.4051
780.00 1488.3011 1030.6086 34.3715 6.3367
790.00 1488.1945 1030.6619 34.3680 6.2682
800.00 1488.0879 1030.7151 34.3645 6.1997
810.00 1487.9813 1030.7683 34.3610 6.1313
820.00 1487.8797 1030.8220 34.3586 6.0643
830.00 1487.7823 1030.8762 34.3571 5.9985
840.00 1487.6849 1030.9304 34.3556 5.9328
850.00 1487.5875 1030.9846 34.3542 5.8670
860.00 1487.4901 1031.0387 34.3527 5.8012
870.00 1487.3927 1031.0929 34.3512 5.7355
880.00 1487.2953 1031.1471 34.3497 5.6697
890.00 1487.1979 1031.2013 34.3482 5.6039
900.00 1487.1006 1031.2554 34.3467 5.5382
910.00 1487.0033 1031.3096 34.3453 5.4724
920.00 1486.9127 1031.3648 34.3457 5.4087
930.00 1486.8221 1031.4200 34.3461 5.3450
940.00 1486.7315 1031.4752 34.3465 5.2813
950.00 1486.6409 1031.5303 34.3469 5.2175
960.00 1486.5503 1031.5855 34.3473 5.1538
970.00 1486.4597 1031.6407 34.3477 5.0901
980.00 1486.3691 1031.6958 34.3481 5.0264
990.00 1486.2784 1031.7510 34.3485 4.9626
1000.00 1486.1878 1031.8062 34.3489 4.8989
1010.00 1486.1020 1031.8615 34.3498 4.8364
1020.00 1486.0283 1031.9172 34.3520 4.7772
1030.00 1485.9547 1031.9730 34.3541 4.7179
1040.00 1485.8810 1032.0287 34.3563 4.6586
1050.00 1485.8073 1032.0845 34.3584 4.5993
1060.00 1485.7336 1032.1402 34.3605 4.5400
1070.00 1485.6599 1032.1960 34.3627 4.4807
1080.00 1485.5862 1032.2517 34.3648 4.4214
1090.00 1485.5125 1032.3075 34.3670 4.3621
1100.00 1485.4388 1032.3632 34.3691 4.3028
1110.00 1485.3769 1032.4190 34.3718 4.2464
1120.00 1485.3318 1032.4747 34.3754 4.1943
1130.00 1485.2867 1032.5305 34.3789 4.1421
1140.00 1485.2416 1032.5862 34.3824 4.0899
1150.00 1485.1965 1032.6419 34.3859 4.0377
1160.00 1485.1514 1032.6977 34.3894 3.9855
1170.00 1485.1063 1032.7534 34.3929 3.9334
1180.00 1485.0613 1032.8092 34.3964 3.8812
1190.00 1485.0162 1032.8649 34.4000 3.8290
1200.00 1484.9711 1032.9206 34.4035 3.7768
1210.00 1484.9429 1032.9761 34.4073 3.7287
1220.00 1484.9356 1033.0311 34.4116 3.6857
1230.00 1484.9283 1033.0862 34.4159 3.6427
1240.00 1484.9210 1033.1413 34.4202 3.5997
1250.00 1484.9137 1033.1964 34.4245 3.5567
1260.00 1484.9065 1033.2514 34.4288 3.5137
1270.00 1484.8992 1033.3065 34.4331 3.4706
1280.00 1484.8919 1033.3616 34.4374 3.4276
1290.00 1484.8846 1033.4167 34.4417 3.3846
1300.00 1484.8773 1033.4717 34.4460 3.3416
1310.00 1484.8862 1033.5263 34.4503 3.3025
1320.00 1484.9215 1033.5801 34.4547 3.2696
1330.00 1484.9568 1033.6339 34.4590 3.2368
1340.00 1484.9921 1033.6876 34.4634 3.2040
1350.00 1485.0273 1033.7414 34.4677 3.1711
1360.00 1485.0626 1033.7952 34.4721 3.1383
1370.00 1485.0979 1033.8489 34.4765 3.1055
1380.00 1485.1332 1033.9027 34.4808 3.0727
1390.00 1485.1685 1033.9565 34.4852 3.0398
1400.00 1485.2038 1034.0103 34.4896 3.0070
1410.00 1485.2424 1034.0639 34.4939 2.9750
1420.00 1485.3167 1034.1160 34.4977 2.9514
1430.00 1485.3910 1034.1682 34.5015 2.9279
1440.00 1485.4654 1034.2203 34.5053 2.9044
1450.00 1485.5397 1034.2724 34.5091 2.8809
1460.00 1485.6141 1034.3246 34.5130 2.8574
1470.00 1485.6884 1034.3767 34.5168 2.8339
1480.00 1485.7628 1034.4288 34.5206 2.8103
1490.00 1485.8371 1034.4810 34.5244 2.7868
1500.00 1485.9115 1034.5331 34.5282 2.7633
1510.00 1485.9858 1034.5852 34.5321 2.7398
1520.00 1486.0686 1034.6369 34.5356 2.7183
1530.00 1486.1721 1034.6874 34.5386 2.7018
1540.00 1486.2757 1034.7379 34.5415 2.6852
1550.00 1486.3792 1034.7884 34.5445 2.6687
1560.00 1486.4827 1034.8389 34.5475 2.6522
1570.00 1486.5863 1034.8894 34.5504 2.6356
1580.00 1486.6898 1034.9400 34.5534 2.6191
1590.00 1486.7933 1034.9905 34.5563 2.6026
1600.00 1486.8969 1035.0410 34.5593 2.5860
1610.00 1487.0004 1035.0915 34.5623 2.5695
1620.00 1487.1039 1035.1420 34.5652 2.5530
1630.00 1487.2075 1035.1925 34.5682 2.5364
1640.00 1487.3221 1035.2423 34.5706 2.5226
1650.00 1487.4447 1035.2915 34.5727 2.5106
1660.00 1487.5672 1035.3407 34.5748 2.4986
1670.00 1487.6898 1035.3898 34.5768 2.4866
1680.00 1487.8124 1035.4390 34.5789 2.4747
1690.00 1487.9350 1035.4882 34.5810 2.4627
1700.00 1488.0576 1035.5374 34.5830 2.4507
1710.00 1488.1802 1035.5866 34.5851 2.4388
1720.00 1488.3027 1035.6358 34.5872 2.4268
1730.00 1488.4253 1035.6850 34.5893 2.4148
1740.00 1488.5479 1035.7342 34.5913 2.4029
1750.00 1488.6705 1035.7834 34.5934 2.3909
1760.00 1488.7931 1035.8326 34.5955 2.3789
1770.00 1488.9211 1035.8813 34.5972 2.3683
1780.00 1489.0549 1035.9296 34.5986 2.3590
1790.00 1489.1886 1035.9778 34.6000 2.3496
1800.00 1489.3224 1036.0260 34.6014 2.3403
1810.00 1489.4561 1036.0743 34.6028 2.3310
1820.00 1489.5899 1036.1225 34.6042 2.3217
1830.00 1489.7236 1036.1708 34.6055 2.3124
1840.00 1489.8574 1036.2190 34.6069 2.3031
1850.00 1489.9912 1036.2673 34.6083 2.2938
1860.00 1490.1249 1036.3155 34.6097 2.2845
1870.00 1490.2587 1036.3638 34.6111 2.2752
1880.00 1490.3924 1036.4120 34.6125 2.2659
1890.00 1490.5262 1036.4603 34.6139 2.2565
1900.00 1490.6599 1036.5085 34.6153 2.2472
1910.00 1490.7937 1036.5567 34.6167 2.2379
1920.00 1490.9310 1036.6047 34.6178 2.2294
1930.00 1491.0708 1036.6523 34.6188 2.2215
1940.00 1491.2106 1036.7000 34.6197 2.2135
1950.00 1491.3503 1036.7476 34.6207 2.2056
1960.00 1491.4901 1036.7953 34.6217 2.1977
1970.00 1491.6299 1036.8429 34.6226 2.1897
1980.00 1491.7697 1036.8906 34.6236 2.1818
1990.00 1491.9095 1036.9383 34.6246 2.1738
2000.00 1492.0493 1036.9859 34.6255 2.1659
2010.00 1492.1891 1037.0336 34.6265 2.1580
2020.00 1492.3288 1037.0812 34.6274 2.1500
2030.00 1492.4686 1037.1289 34.6284 2.1421
2040.00 1492.6084 1037.1766 34.6294 2.1341
2050.00 1492.7482 1037.2242 34.6303 2.1262
2060.00 1492.8880 1037.2719 34.6313 2.1183
2070.00 1493.0278 1037.3195 34.6323 2.1103
2080.00 1493.1676 1037.3672 34.6332 2.1024
2090.00 1493.3095 1037.4146 34.6341 2.0949
2100.00 1493.4529 1037.4619 34.6348 2.0877
2110.00 1493.5964 1037.5092 34.6355 2.0805
2120.00 1493.7398 1037.5565 34.6363 2.0733
2130.00 1493.8832 1037.6038 34.6370 2.0661
2140.00 1494.0267 1037.6511 34.6377 2.0589
2150.00 1494.1701 1037.6984 34.6385 2.0517
2160.00 1494.3135 1037.7456 34.6392 2.0445
2170.00 1494.4569 1037.7929 34.6400 2.0373
2180.00 1494.6004 1037.8402 34.6407 2.0301
2190.00 1494.7438 1037.8875 34.6414 2.0229
2200.00 1494.8872 1037.9348 34.6422 2.0157
2210.00 1495.0307 1037.9821 34.6429 2.0085
2220.00 1495.1741 1038.0294 34.6436 2.0013
2230.00 1495.3175 1038.0767 34.6444 1.9941
2240.00 1495.4609 1038.1240 34.6451 1.9869
2250.00 1495.6044 1038.1712 34.6459 1.9797
2260.00 1495.7478 1038.2185 34.6466 1.9725
2270.00 1495.8912 1038.2658 34.6473 1.9653
2280.00 1496.0359 1038.3130 34.6480 1.9583
2290.00 1496.1825 1038.3600 34.6487 1.9517
2300.00 1496.3292 1038.4071 34.6493 1.9451
2310.00 1496.4758 1038.4541 34.6499 1.9385
2320.00 1496.6225 1038.5011 34.6506 1.9318
2330.00 1496.7691 1038.5481 34.6512 1.9252
2340.00 1496.9158 1038.5952 34.6519 1.9186
2350.00 1497.0625 1038.6422 34.6525 1.9120
2360.00 1497.2091 1038.6892 34.6531 1.9054
2370.00 1497.3558 1038.7362 34.6538 1.8988
2380.00 1497.5024 1038.7832 34.6544 1.8921
2390.00 1497.6491 1038.8303 34.6550 1.8855
2400.00 1497.7957 1038.8773 34.6557 1.8789
2410.00 1497.9424 1038.9243 34.6563 1.8723
2420.00 1498.0891 1038.9713 34.6570 1.8657
2430.00 1498.2357 1039.0184 34.6576 1.8590
2440.00 1498.3824 1039.0654 34.6582 1.8524
2450.00 1498.5290 1039.1124 34.6589 1.8458
2460.00 1498.6757 1039.1594 34.6595 1.8392
2470.00 1498.8223 1039.2064 34.6601 1.8326
2480.00 1498.9690 1039.2535 34.6608 1.8260
2490.00 1499.1156 1039.3005 34.6614 1.8193
2500.00 1499.2658 1039.3473 34.6620 1.8133
2510.00 1499.4164 1039.3941 34.6626 1.8074
2520.00 1499.5671 1039.4408 34.6632 1.8015
2530.00 1499.7177 1039.4876 34.6638 1.7956
2540.00 1499.8683 1039.5344 34.6644 1.7897
2550.00 1500.0190 1039.5812 34.6650 1.7838
2560.00 1500.1696 1039.6279 34.6657 1.7779
2570.00 1500.3202 1039.6747 34.6663 1.7719
2580.00 1500.4709 1039.7215 34.6669 1.7660
2590.00 1500.6215 1039.7682 34.6675 1.7601
2600.00 1500.7722 1039.8150 34.6681 1.7542
2610.00 1500.9228 1039.8618 34.6687 1.7483
2620.00 1501.0734 1039.9086 34.6693 1.7424
2630.00 1501.2241 1039.9553 34.6699 1.7365
2640.00 1501.3747 1040.0021 34.6705 1.7305
2650.00 1501.5254 1040.0489 34.6711 1.7246
2660.00 1501.6760 1040.0957 34.6717 1.7187
2670.00 1501.8266 1040.1424 34.6723 1.7128
2680.00 1501.9773 1040.1892 34.6729 1.7069
2690.00 1502.1279 1040.2360 34.6735 1.7010
2700.00 1502.2785 1040.2827 34.6741 1.6951
2710.00 1502.4292 1040.3295 34.6747 1.6891
2720.00 1502.5798 1040.3763 34.6753 1.6832
2730.00 1502.7307 1040.4230 34.6759 1.6774
2740.00 1502.8849 1040.4696 34.6765 1.6720
2750.00 1503.0390 1040.5161 34.6771 1.6667
2760.00 1503.1932 1040.5626 34.6777 1.6613
2770.00 1503.3474 1040.6091 34.6782 1.6560
2780.00 1503.5015 1040.6557 34.6788 1.6506
2790.00 1503.6557 1040.7022 34.6794 1.6453
2800.00 1503.8098 1040.7487 34.6800 1.6400
2810.00 1503.9640 1040.7953 34.6806 1.6346
2820.00 1504.1182 1040.8418 34.6812 1.6293
2830.00 1504.2723 1040.8883 34.6817 1.6239
2840.00 1504.4265 1040.9348 34.6823 1.6186
2850.00 1504.5806 1040.9814 34.6829 1.6132
2860.00 1504.7348 1041.0279 34.6835 1.6079
2870.00 1504.8889 1041.0744 34.6841 1.6026
2880.00 1505.0431 1041.1209 34.6846 1.5972
2890.00 1505.1973 1041.1675 34.6852 1.5919
2900.00 1505.3514 1041.2140 34.6858 1.5865
2910.00 1505.5056 1041.2605 34.6864 1.5812
2920.00 1505.6597 1041.3070 34.6870 1.5758
2930.00 1505.8139 1041.3536 34.6875 1.5705
2940.00 1505.9681 1041.4001 34.6881 1.5652
2950.00 1506.1222 1041.4466 34.6887 1.5598
2960.00 1506.2764 1041.4932 34.6893 1.5545
2970.00 1506.4305 1041.5397 34.6899 1.5491
2980.00 1506.5847 1041.5862 34.6904 1.5438
2990.00 1506.7389 1041.6327 34.6910 1.5384
3000.00 1506.8921 1041.6791 34.6915 1.5327
3010.00 1507.0452 1041.7255 34.6921 1.5269
3020.00 1507.1984 1041.7719 34.6926 1.5211
3030.00 1507.3516 1041.8183 34.6931 1.5153
3040.00 1507.5048 1041.8647 34.6937 1.5095
3050.00 1507.6580 1041.9111 34.6942 1.5037
3060.00 1507.8112 1041.9575 34.6947 1.4979
3070.00 1507.9644 1042.0039 34.6952 1.4921
3080.00 1508.1175 1042.0503 34.6958 1.4863
3090.00 1508.2707 1042.0967 34.6963 1.4806
3100.00 1508.4239 1042.1431 34.6968 1.4748
3110.00 1508.5771 1042.1895 34.6974 1.4690
3120.00 1508.7303 1042.2359 34.6979 1.4632
3130.00 1508.8835 1042.2823 34.6984 1.4574
3140.00 1509.0366 1042.3287 34.6989 1.4516
3150.00 1509.1898 1042.3751 34.6995 1.4458
3160.00 1509.3430 1042.4215 34.7000 1.4400
3170.00 1509.4962 1042.4679 34.7005 1.4342
3180.00 1509.6494 1042.5142 34.7011 1.4285
3190.00 1509.8026 1042.5606 34.7016 1.4227
3200.00 1509.9557 1042.6070 34.7021 1.4169
3210.00 1510.1089 1042.6534 34.7026 1.4111
3220.00 1510.2621 1042.6998 34.7032 1.4053
3230.00 1510.4153 1042.7462 34.7037 1.3995
3240.00 1510.5685 1042.7926 34.7042 1.3937
3250.00 1510.7217 1042.8390 34.7048 1.3879
3260.00 1510.8749 1042.8854 34.7053 1.3821
3270.00 1511.0280 1042.9318 34.7058 1.3764
3280.00 1511.1790 1042.9781 34.7063 1.3700
3290.00 1511.3284 1043.0244 34.7066 1.3631
3300.00 1511.4778 1043.0707 34.7070 1.3563
3310.00 1511.6272 1043.1170 34.7074 1.3494
3320.00 1511.7766 1043.1633 34.7078 1.3426
3330.00 1511.9260 1043.2096 34.7082 1.3357
3340.00 1512.0754 1043.2559 34.7085 1.3289
3350.00 1512.2248 1043.3022 34.7089 1.3220
3360.00 1512.3742 1043.3485 34.7093 1.3152
3370.00 1512.5235 1043.3948 34.7097 1.3083
3380.00 1512.6729 1043.4411 34.7100 1.3015
3390.00 1512.8223 1043.4874 34.7104 1.2946
3400.00 1512.9717 1043.5336 34.7108 1.2878
3410.00 1513.1211 1043.5799 34.7112 1.2809
3420.00 1513.2705 1043.6262 34.7116 1.2740
3430.00 1513.4199 1043.6725 34.7119 1.2672
3440.00 1513.5693 1043.7188 34.7123 1.2603
3450.00 1513.7187 1043.7651 34.7127 1.2535
3460.00 1513.8680 1043.8114 34.7131 1.2466
3470.00 1514.0174 1043.8577 34.7134 1.2398
3480.00 1514.1668 1043.9040 34.7138 1.2329
3490.00 1514.3162 1043.9503 34.7142 1.2261
3500.00 1514.4656 1043.9966 34.7146 1.2192
3510.00 1514.6150 1044.0429 34.7150 1.2124
3520.00 1514.7644 1044.0892 34.7153 1.2055
3530.00 1514.9138 1044.1354 34.7157 1.1987
3540.00 1515.0632 1044.1817 34.7161 1.1918
3550.00 1515.2126 1044.2280 34.7165 1.1850
3560.00 1515.3619 1044.2743 34.7169 1.1781
3570.00 1515.5113 1044.3206 34.7172 1.1713
3580.00 1515.6607 1044.3669 34.7176 1.1644
3590.00 1515.8119 1044.4129 34.7178 1.1578
3600.00 1515.9634 1044.4588 34.7179 1.1512
3610.00 1516.1148 1044.5047 34.7180 1.1446
3620.00 1516.2662 1044.5506 34.7182 1.1380
3630.00 1516.4177 1044.5965 34.7183 1.1314
3640.00 1516.5691 1044.6424 34.7184 1.1248
3650.00 1516.7206 1044.6883 34.7185 1.1182
3660.00 1516.8720 1044.7342 34.7187 1.1116
3670.00 1517.0235 1044.7801 34.7188 1.1050
3680.00 1517.1749 1044.8260 34.7189 1.0984
3690.00 1517.3264 1044.8719 34.7191 1.0918
3700.00 1517.4778 1044.9178 34.7192 1.0852
3710.00 1517.6293 1044.9637 34.7193 1.0786
3720.00 1517.7807 1045.0096 34.7194 1.0720
3730.00 1517.9321 1045.0555 34.7196 1.0654
3740.00 1518.0836 1045.1015 34.7197 1.0588
3750.00 1518.2350 1045.1474 34.7198 1.0522
3760.00 1518.3865 1045.1933 34.7200 1.0455
3770.00 1518.5379 1045.2392 34.7201 1.0389
3780.00 1518.6894 1045.2851 34.7202 1.0323
3790.00 1518.8408 1045.3310 34.7203 1.0257
3800.00 1518.9923 1045.3769 34.7205 1.0191
3810.00 1519.1437 1045.4228 34.7206 1.0125
3820.00 1519.2952 1045.4687 34.7207 1.0059
3830.00 1519.4466 1045.5146 34.7209 0.9993
3840.00 1519.5980 1045.5605 34.7210 0.9927
3850.00 1519.7495 1045.6064 34.7211 0.9861
3860.00 1519.9009 1045.6523 34.7212 0.9795
3870.00 1520.0524 1045.6982 34.7214 0.9729
3880.00 1520.2038 1045.7441 34.7215 0.9663
3890.00 1520.3553 1045.7900 34.7216 0.9597
3900.00 1520.5067 1045.8359 34.7218 0.9531
3910.00 1520.6582 1045.8819 34.7219 0.9465
3920.00 1520.8168 1045.9273 34.7219 0.9413
3930.00 1520.9765 1045.9726 34.7218 0.9362
3940.00 1521.1362 1046.0179 34.7218 0.9312
3950.00 1521.2958 1046.0633 34.7217 0.9262
3960.00 1521.4555 1046.1086 34.7217 0.9211
3970.00 1521.6152 1046.1539 34.7217 0.9161
3980.00 1521.7749 1046.1993 34.7216 0.9111
3990.00 1521.9346 1046.2446 34.7216 0.9060
4000.00 1522.0942 1046.2899 34.7216 0.9010
4010.00 1522.2539 1046.3353 34.7215 0.8960
4020.00 1522.4136 1046.3806 34.7215 0.8909
4030.00 1522.5733 1046.4259 34.7214 0.8859
4040.00 1522.7330 1046.4713 34.7214 0.8809
4050.00 1522.8926 1046.5166 34.7214 0.8758
4060.00 1523.0523 1046.5619 34.7213 0.8708
4070.00 1523.2120 1046.6073 34.7213 0.8658
4080.00 1523.3717 1046.6526 34.7212 0.8607
4090.00 1523.5313 1046.6980 34.7212 0.8557
4100.00 1523.6910 1046.7433 34.7212 0.8507
4110.00 1523.8507 1046.7886 34.7211 0.8456
4120.00 1524.0104 1046.8340 34.7211 0.8406
4130.00 1524.1701 1046.8793 34.7210 0.8355
4140.00 1524.3297 1046.9246 34.7210 0.8305
4150.00 1524.4894 1046.9700 34.7210 0.8255
4160.00 1524.6491 1047.0153 34.7209 0.8204
4170.00 1524.8088 1047.0606 34.7209 0.8154
4180.00 1524.9685 1047.1060 34.7209 0.8104
4190.00 1525.1281 1047.1513 34.7208 0.8053
4200.00 1525.2878 1047.1966 34.7208 0.8003
4210.00 1525.4475 1047.2420 34.7207 0.7953
4220.00 1525.6072 1047.2873 34.7207 0.7902
4230.00 1525.7668 1047.3326 34.7207 0.7852
4240.00 1525.9265 1047.3780 34.7206 0.7802
4250.00 1526.0862 1047.4233 34.7206 0.7751
4260.00 1526.2459 1047.4686 34.7205 0.7701
4270.00 1526.4111 1047.5137 34.7205 0.7661
4280.00 1526.5805 1047.5584 34.7204 0.7629
4290.00 1526.7499 1047.6032 34.7203 0.7597
4300.00 1526.9193 1047.6479 34.7203 0.7565
4310.00 1527.0887 1047.6927 34.7202 0.7533
4320.00 1527.2581 1047.7375 34.7201 0.7502
4330.00 1527.4274 1047.7822 34.7200 0.7470
4340.00 1527.5968 1047.8270 34.7200 0.7438
4350.00 1527.7662 1047.8718 34.7199 0.7406
4360.00 1527.9356 1047.9165 34.7198 0.7374
4370.00 1528.1050 1047.9613 34.7197 0.7342
4380.00 1528.2744 1048.0061 34.7197 0.7310
4390.00 1528.4437 1048.0508 34.7196 0.7278
4400.00 1528.6131 1048.0956 34.7195 0.7246
4410.00 1528.7825 1048.1404 34.7194 0.7214
4420.00 1528.9519 1048.1851 34.7194 0.7182
4430.00 1529.1213 1048.2299 34.7193 0.7150
4440.00 1529.2907 1048.2747 34.7192 0.7118
4450.00 1529.4600 1048.3194 34.7191 0.7086
4460.00 1529.6294 1048.3642 34.7191 0.7054
4470.00 1529.7988 1048.4089 34.7190 0.7022
4480.00 1529.9682 1048.4537 34.7189 0.6991
4490.00 1530.1376 1048.4985 34.7189 0.6959
4500.00 1530.3070 1048.5432 34.7188 0.6927
4510.00 1530.4763 1048.5880 34.7187 0.6895
4520.00 1530.6457 1048.6328 34.7186 0.6863
4530.00 1530.8151 1048.6775 34.7186 0.6831
4540.00 1530.9845 1048.7223 34.7185 0.6799
4550.00 1531.1539 1048.7671 34.7184 0.6767
4560.00 1531.3233 1048.8118 34.7183 0.6735
4570.00 1531.4927 1048.8566 34.7183 0.6703
4580.00 1531.6620 1048.9014 34.7182 0.6671
4590.00 1531.8314 1048.9461 34.7181 0.6639
4600.00 1532.0008 1048.9909 34.7180 0.6607
4610.00 1532.1702 1049.0357 34.7180 0.6575
4620.00 1532.3396 1049.0804 34.7179 0.6543
4630.00 1532.5090 1049.1252 34.7178 0.6511
4640.00 1532.6783 1049.1699 34.7177 0.6480
4650.00 1532.8561 1049.2142 34.7177 0.6463
4660.00 1533.0341 1049.2584 34.7176 0.6447
4670.00 1533.2120 1049.3027 34.7176 0.6431
4680.00 1533.3900 1049.3469 34.7175 0.6414
4690.00 1533.5679 1049.3911 34.7175 0.6398
4700.00 1533.7459 1049.4354 34.7174 0.6382
4710.00 1533.9239 1049.4796 34.7174 0.6366
4720.00 1534.1018 1049.5238 34.7173 0.6350
4730.00 1534.2798 1049.5681 34.7173 0.6334
4740.00 1534.4578 1049.6123 34.7172 0.6317
4750.00 1534.6357 1049.6565 34.7172 0.6301
4760.00 1534.8137 1049.7008 34.7171 0.6285
4770.00 1534.9917 1049.7450 34.7171 0.6269
4780.00 1535.1696 1049.7892 34.7170 0.6253
4790.00 1535.3476 1049.8334 34.7170 0.6237
4800.00 1535.5255 1049.8777 34.7169 0.6220
4810.00 1535.7035 1049.9219 34.7169 0.6204
4820.00 1535.8815 1049.9661 34.7168 0.6188
4830.00 1536.0594 1050.0104 34.7168 0.6172
4840.00 1536.2374 1050.0546 34.7167 0.6156
4850.00 1536.4154 1050.0988 34.7167 0.6139
4860.00 1536.5933 1050.1431 34.7166 0.6123
4870.00 1536.7713 1050.1873 34.7166 0.6107
4880.00 1536.9493 1050.2315 34.7165 0.6091
4890.00 1537.1272 1050.2758 34.7165 0.6075
4900.00 1537.3052 1050.3200 34.7164 0.6059
4910.00 1537.4832 1050.3642 34.7164 0.6042
4920.00 1537.6611 1050.4085 34.7163 0.6026
4930.00 1537.8391 1050.4527 34.7163 0.6010
4940.00 1538.0170 1050.4969 34.7162 0.5994
4950.00 1538.1950 1050.5412 34.7162 0.5978
4960.00 1538.3730 1050.5854 34.7161 0.5962
4970.00 1538.5509 1050.6296 34.7161 0.5945
4980.00 1538.7289 1050.6739 34.7160 0.5929
4990.00 1538.9069 1050.7181 34.7160 0.5913
5000.00 1539.0848 1050.7623 34.7159 0.5897
5010.00 1539.2628 1050.8066 34.7159 0.5881
5020.00 1539.4408 1050.8508 34.7158 0.5865
5030.00 1539.6187 1050.8950 34.7158 0.5848
5040.00 1539.7972 1050.9392 34.7157 0.5833
5050.00 1539.9814 1050.9830 34.7157 0.5828
5060.00 1540.1656 1051.0267 34.7157 0.5822
5070.00 1540.3498 1051.0705 34.7157 0.5817
5080.00 1540.5341 1051.1142 34.7157 0.5811
5090.00 1540.7183 1051.1580 34.7156 0.5806
5100.00 1540.9025 1051.2017 34.7156 0.5801
5110.00 1541.0868 1051.2455 34.7156 0.5795
5120.00 1541.2710 1051.2892 34.7156 0.5790
5130.00 1541.4552 1051.3330 34.7156 0.5785
5140.00 1541.6395 1051.3767 34.7155 0.5779
5150.00 1541.8237 1051.4205 34.7155 0.5774
5160.00 1542.0079 1051.4642 34.7155 0.5768
5170.00 1542.1922 1051.5079 34.7155 0.5763
5180.00 1542.3764 1051.5517 34.7155 0.5758
5190.00 1542.5606 1051.5954 34.7154 0.5752
5200.00 1542.7448 1051.6392 34.7154 0.5747
5210.00 1542.9291 1051.6829 34.7154 0.5741
5220.00 1543.1133 1051.7267 34.7154 0.5736
5230.00 1543.2975 1051.7704 34.7154 0.5731
5240.00 1543.4818 1051.8142 34.7153 0.5725
5250.00 1543.6660 1051.8579 34.7153 0.5720
5260.00 1543.8502 1051.9017 34.7153 0.5715
5270.00 1544.0345 1051.9454 34.7153 0.5709
5280.00 1544.2187 1051.9892 34.7152 0.5704
5290.00 1544.4029 1052.0329 34.7152 0.5698
5300.00 1544.5871 1052.0767 34.7152 0.5693
5310.00 1544.7714 1052.1204 34.7152 0.5688
5320.00 1544.9556 1052.1642 34.7152 0.5682
5330.00 1545.1398 1052.2079 34.7151 0.5677
